time,t_wall,t_device_ns,x,y,z
0.000000,1775665502.792857,599616438449359356,-852,60,535
0.005000,1775665502.792857,599616438449359356,-847,56,533
0.010000,1775665502.792857,599616438449359356,-845,60,531
0.015000,1775665502.792857,599616438449359356,-846,57,531
0.020000,1775665502.792857,599616438449359356,-847,61,531
0.025000,1775665502.792857,599616438449359356,-848,59,531
0.030000,1775665502.792857,599616438449359356,-847,59,532
0.035000,1775665502.792857,599616438449359356,-847,58,534
0.040000,1775665502.792857,599616438449359356,-846,58,532
0.045000,1775665502.792857,599616438449359356,-844,60,531
0.050000,1775665502.792857,599616438449359356,-846,59,534
0.055000,1775665502.792857,599616438449359356,-845,56,534
0.060000,1775665502.792857,599616438449359356,-846,61,533
0.065000,1775665502.792857,599616438449359356,-846,58,532
0.070000,1775665502.792857,599616438449359356,-850,61,531
0.075000,1775665502.792857,599616438449359356,-844,61,533
0.080000,1775665502.792857,599616438449359356,-847,60,533
0.085000,1775665502.792857,599616438449359356,-848,58,532
0.090000,1775665502.792857,599616438449359356,-846,61,533
0.095000,1775665502.792857,599616438449359356,-849,60,534
0.100000,1775665502.792857,599616438449359356,-844,59,533
0.105000,1775665502.792857,599616438449359356,-850,60,534
0.110000,1775665502.792857,599616438449359356,-848,58,532
0.115000,1775665502.792857,599616438449359356,-846,61,536
0.120000,1775665502.792857,599616438449359356,-848,59,533
0.125000,1775665502.792857,599616438449359356,-847,60,533
0.130000,1775665502.792857,599616438449359356,-849,57,531
0.135000,1775665502.792857,599616438449359356,-845,56,532
0.140000,1775665502.792857,599616438449359356,-850,55,532
0.145000,1775665502.792857,599616438449359356,-846,60,534
0.150000,1775665502.792857,599616438449359356,-845,61,535
0.155000,1775665502.792857,599616438449359356,-844,57,535
0.160000,1775665502.792857,599616438449359356,-845,58,534
0.165000,1775665502.792857,599616438449359356,-845,60,533
0.170000,1775665502.792857,599616438449359356,-846,59,532
0.175000,1775665502.792857,599616438449359356,-845,60,534
0.176150,1775665502.929911,599616438625509252,-846,58,531
0.181150,1775665502.929911,599616438625509252,-846,57,533
0.186150,1775665502.929911,599616438625509252,-850,57,535
0.191150,1775665502.929911,599616438625509252,-851,56,534
0.196150,1775665502.929911,599616438625509252,-846,55,533
0.201150,1775665502.929911,599616438625509252,-847,60,531
0.206150,1775665502.929911,599616438625509252,-845,59,534
0.211150,1775665502.929911,599616438625509252,-844,59,531
0.216150,1775665502.929911,599616438625509252,-848,61,531
0.221150,1775665502.929911,599616438625509252,-845,59,531
0.226150,1775665502.929911,599616438625509252,-843,61,531
0.231150,1775665502.929911,599616438625509252,-844,60,534
0.236150,1775665502.929911,599616438625509252,-843,58,535
0.241150,1775665502.929911,599616438625509252,-844,58,533
0.246150,1775665502.929911,599616438625509252,-848,60,534
0.251150,1775665502.929911,599616438625509252,-849,59,535
0.256150,1775665502.929911,599616438625509252,-847,56,535
0.261150,1775665502.929911,599616438625509252,-847,60,536
0.266150,1775665502.929911,599616438625509252,-845,59,535
0.271150,1775665502.929911,599616438625509252,-846,56,532
0.276150,1775665502.929911,599616438625509252,-849,58,532
0.281150,1775665502.929911,599616438625509252,-846,56,536
0.286150,1775665502.929911,599616438625509252,-851,58,532
0.291150,1775665502.929911,599616438625509252,-849,58,534
0.296150,1775665502.929911,599616438625509252,-849,60,535
0.301150,1775665502.929911,599616438625509252,-847,60,531
0.306150,1775665502.929911,599616438625509252,-847,57,535
0.311150,1775665502.929911,599616438625509252,-845,60,533
0.316150,1775665502.929911,599616438625509252,-848,62,532
0.321150,1775665502.929911,599616438625509252,-847,59,531
0.326150,1775665502.929911,599616438625509252,-847,57,531
0.331150,1775665502.929911,599616438625509252,-846,56,531
0.336150,1775665502.929911,599616438625509252,-847,59,529
0.341150,1775665502.929911,599616438625509252,-851,57,528
0.346150,1775665502.929911,599616438625509252,-851,56,530
0.351150,1775665502.929911,599616438625509252,-850,57,531
0.352330,1775665503.155237,599616438801689676,-849,61,535
0.357330,1775665503.155237,599616438801689676,-846,57,535
0.362330,1775665503.155237,599616438801689676,-846,60,535
0.367330,1775665503.155237,599616438801689676,-843,58,536
0.372330,1775665503.155237,599616438801689676,-848,56,541
0.377330,1775665503.155237,599616438801689676,-846,57,536
0.382330,1775665503.155237,599616438801689676,-851,57,534
0.387330,1775665503.155237,599616438801689676,-847,58,533
0.392330,1775665503.155237,599616438801689676,-849,58,532
0.397330,1775665503.155237,599616438801689676,-845,57,532
0.402330,1775665503.155237,599616438801689676,-844,58,530
0.407330,1775665503.155237,599616438801689676,-842,56,530
0.412330,1775665503.155237,599616438801689676,-842,58,532
0.417330,1775665503.155237,599616438801689676,-845,58,536
0.422330,1775665503.155237,599616438801689676,-844,58,536
0.427330,1775665503.155237,599616438801689676,-844,57,539
0.432330,1775665503.155237,599616438801689676,-844,56,539
0.437330,1775665503.155237,599616438801689676,-844,57,537
0.442330,1775665503.155237,599616438801689676,-845,56,532
0.447330,1775665503.155237,599616438801689676,-847,52,532
0.452330,1775665503.155237,599616438801689676,-848,56,528
0.457330,1775665503.155237,599616438801689676,-847,57,528
0.462330,1775665503.155237,599616438801689676,-847,58,524
0.467330,1775665503.155237,599616438801689676,-846,58,524
0.472330,1775665503.155237,599616438801689676,-843,61,526
0.477330,1775665503.155237,599616438801689676,-842,61,528
0.482330,1775665503.155237,599616438801689676,-841,58,534
0.487330,1775665503.155237,599616438801689676,-841,60,534
0.492330,1775665503.155237,599616438801689676,-843,62,534
0.497330,1775665503.155237,599616438801689676,-841,60,534
0.502330,1775665503.155237,599616438801689676,-846,57,536
0.507330,1775665503.155237,599616438801689676,-849,59,539
0.512330,1775665503.155237,599616438801689676,-847,57,536
0.517330,1775665503.155237,599616438801689676,-852,58,536
0.522330,1775665503.155237,599616438801689676,-853,59,536
0.527330,1775665503.155237,599616438801689676,-853,56,538
0.528572,1775665503.289970,599616438977931110,-850,56,533
0.533572,1775665503.289970,599616438977931110,-851,58,534
0.538572,1775665503.289970,599616438977931110,-847,55,533
0.543572,1775665503.289970,599616438977931110,-848,56,534
0.548572,1775665503.289970,599616438977931110,-847,58,535
0.553572,1775665503.289970,599616438977931110,-845,56,536
0.558572,1775665503.289970,599616438977931110,-846,58,533
0.563572,1775665503.289970,599616438977931110,-843,58,532
0.568572,1775665503.289970,599616438977931110,-841,62,532
0.573572,1775665503.289970,599616438977931110,-841,61,532
0.578572,1775665503.289970,599616438977931110,-840,58,532
0.583572,1775665503.289970,599616438977931110,-842,58,532
0.588572,1775665503.289970,599616438977931110,-842,60,533
0.593572,1775665503.289970,599616438977931110,-843,58,533
0.598572,1775665503.289970,599616438977931110,-845,58,533
0.603572,1775665503.289970,599616438977931110,-844,55,535
0.608572,1775665503.289970,599616438977931110,-846,58,532
0.613572,1775665503.289970,599616438977931110,-844,57,533
0.618572,1775665503.289970,599616438977931110,-846,56,531
0.623572,1775665503.289970,599616438977931110,-847,55,533
0.628572,1775665503.289970,599616438977931110,-845,56,534
0.633572,1775665503.289970,599616438977931110,-848,58,533
0.638572,1775665503.289970,599616438977931110,-845,54,532
0.643572,1775665503.289970,599616438977931110,-845,54,533
0.648572,1775665503.289970,599616438977931110,-844,55,536
0.653572,1775665503.289970,599616438977931110,-845,57,535
0.658572,1775665503.289970,599616438977931110,-845,59,536
0.663572,1775665503.289970,599616438977931110,-844,58,535
0.668572,1775665503.289970,599616438977931110,-844,59,536
0.673572,1775665503.289970,599616438977931110,-849,58,534
0.678572,1775665503.289970,599616438977931110,-844,54,533
0.683572,1775665503.289970,599616438977931110,-847,57,538
0.688572,1775665503.289970,599616438977931110,-847,57,537
0.693572,1775665503.289970,599616438977931110,-850,57,537
0.698572,1775665503.289970,599616438977931110,-848,59,536
0.703572,1775665503.289970,599616438977931110,-849,60,534
0.704783,1775665503.469995,599616439154142068,-855,60,533
0.709783,1775665503.469995,599616439154142068,-851,57,532
0.714783,1775665503.469995,599616439154142068,-852,58,532
0.719783,1775665503.469995,599616439154142068,-853,54,530
0.724783,1775665503.469995,599616439154142068,-850,52,529
0.729783,1775665503.469995,599616439154142068,-847,48,535
0.734783,1775665503.469995,599616439154142068,-845,53,529
0.739783,1775665503.469995,599616439154142068,-843,54,531
0.744783,1775665503.469995,599616439154142068,-843,53,530
0.749783,1775665503.469995,599616439154142068,-845,59,529
0.754783,1775665503.469995,599616439154142068,-845,61,533
0.759783,1775665503.469995,599616439154142068,-846,58,531
0.764783,1775665503.469995,599616439154142068,-846,58,534
0.769783,1775665503.469995,599616439154142068,-848,58,533
0.774783,1775665503.469995,599616439154142068,-844,59,530
0.779783,1775665503.469995,599616439154142068,-847,59,532
0.784783,1775665503.469995,599616439154142068,-846,61,533
0.789783,1775665503.469995,599616439154142068,-848,61,533
0.794783,1775665503.469995,599616439154142068,-849,59,530
0.799783,1775665503.469995,599616439154142068,-849,58,533
0.804783,1775665503.469995,599616439154142068,-851,58,531
0.809783,1775665503.469995,599616439154142068,-850,60,531
0.814783,1775665503.469995,599616439154142068,-852,56,534
0.819783,1775665503.469995,599616439154142068,-852,57,535
0.824783,1775665503.469995,599616439154142068,-849,56,532
0.829783,1775665503.469995,599616439154142068,-850,58,534
0.834783,1775665503.469995,599616439154142068,-853,59,536
0.839783,1775665503.469995,599616439154142068,-850,60,535
0.844783,1775665503.469995,599616439154142068,-849,57,533
0.849783,1775665503.469995,599616439154142068,-851,59,537
0.854783,1775665503.469995,599616439154142068,-849,61,535
0.859783,1775665503.469995,599616439154142068,-853,56,536
0.864783,1775665503.469995,599616439154142068,-852,60,535
0.869783,1775665503.469995,599616439154142068,-851,59,532
0.874783,1775665503.469995,599616439154142068,-853,58,535
0.879783,1775665503.469995,599616439154142068,-852,57,533
0.881055,1775665503.648922,599616439330414020,-853,60,533
0.886055,1775665503.648922,599616439330414020,-850,60,531
0.891055,1775665503.648922,599616439330414020,-851,59,531
0.896055,1775665503.648922,599616439330414020,-850,58,531
0.901055,1775665503.648922,599616439330414020,-849,60,530
0.906055,1775665503.648922,599616439330414020,-846,56,535
0.911055,1775665503.648922,599616439330414020,-850,52,536
0.916055,1775665503.648922,599616439330414020,-847,57,532
0.921055,1775665503.648922,599616439330414020,-846,57,532
0.926055,1775665503.648922,599616439330414020,-851,59,531
0.931055,1775665503.648922,599616439330414020,-847,57,529
0.936055,1775665503.648922,599616439330414020,-847,58,531
0.941055,1775665503.648922,599616439330414020,-847,61,531
0.946055,1775665503.648922,599616439330414020,-845,59,531
0.951055,1775665503.648922,599616439330414020,-846,58,531
0.956055,1775665503.648922,599616439330414020,-847,59,533
0.961055,1775665503.648922,599616439330414020,-845,61,535
0.966055,1775665503.648922,599616439330414020,-849,57,533
0.971055,1775665503.648922,599616439330414020,-848,56,535
0.976055,1775665503.648922,599616439330414020,-847,59,533
0.981055,1775665503.648922,599616439330414020,-847,60,531
0.986055,1775665503.648922,599616439330414020,-847,58,533
0.991055,1775665503.648922,599616439330414020,-848,58,533
0.996055,1775665503.648922,599616439330414020,-851,57,533
1.001055,1775665503.648922,599616439330414020,-850,59,534
1.006055,1775665503.648922,599616439330414020,-849,58,533
1.011055,1775665503.648922,599616439330414020,-847,58,532
1.016055,1775665503.648922,599616439330414020,-848,60,531
1.021055,1775665503.648922,599616439330414020,-849,57,530
1.026055,1775665503.648922,599616439330414020,-848,58,533
1.031055,1775665503.648922,599616439330414020,-845,58,532
1.036055,1775665503.648922,599616439330414020,-845,59,533
1.041055,1775665503.648922,599616439330414020,-844,59,534
1.046055,1775665503.648922,599616439330414020,-846,57,536
1.051055,1775665503.648922,599616439330414020,-847,58,533
1.056055,1775665503.648922,599616439330414020,-847,56,534
1.057205,1775665503.829902,599616439506563912,-847,55,528
1.062205,1775665503.829902,599616439506563912,-846,57,534
1.067205,1775665503.829902,599616439506563912,-845,55,534
1.072205,1775665503.829902,599616439506563912,-845,59,533
1.077205,1775665503.829902,599616439506563912,-844,58,531
1.082205,1775665503.829902,599616439506563912,-844,57,531
1.087205,1775665503.829902,599616439506563912,-847,56,536
1.092205,1775665503.829902,599616439506563912,-844,57,536
1.097205,1775665503.829902,599616439506563912,-844,57,533
1.102205,1775665503.829902,599616439506563912,-846,58,534
1.107205,1775665503.829902,599616439506563912,-845,57,531
1.112205,1775665503.829902,599616439506563912,-844,58,532
1.117205,1775665503.829902,599616439506563912,-847,59,533
1.122205,1775665503.829902,599616439506563912,-844,56,533
1.127205,1775665503.829902,599616439506563912,-845,56,532
1.132205,1775665503.829902,599616439506563912,-845,59,535
1.137205,1775665503.829902,599616439506563912,-847,59,536
1.142205,1775665503.829902,599616439506563912,-846,56,535
1.147205,1775665503.829902,599616439506563912,-843,57,534
1.152205,1775665503.829902,599616439506563912,-842,63,532
1.157205,1775665503.829902,599616439506563912,-846,60,533
1.162205,1775665503.829902,599616439506563912,-845,60,534
1.167204,1775665503.829902,599616439506563912,-845,59,533
1.172205,1775665503.829902,599616439506563912,-844,59,533
1.177205,1775665503.829902,599616439506563912,-846,60,535
1.182205,1775665503.829902,599616439506563912,-845,55,537
1.187205,1775665503.829902,599616439506563912,-845,55,536
1.192205,1775665503.829902,599616439506563912,-846,57,535
1.197205,1775665503.829902,599616439506563912,-845,56,534
1.202205,1775665503.829902,599616439506563912,-844,62,534
1.207205,1775665503.829902,599616439506563912,-846,56,533
1.212205,1775665503.829902,599616439506563912,-842,58,532
1.217205,1775665503.829902,599616439506563912,-844,56,534
1.222205,1775665503.829902,599616439506563912,-842,58,533
1.227205,1775665503.829902,599616439506563912,-842,53,533
1.232205,1775665503.829902,599616439506563912,-840,59,534
1.233385,1775665504.010830,599616439682744336,-841,61,539
1.238385,1775665504.010830,599616439682744336,-842,59,534
1.243385,1775665504.010830,599616439682744336,-842,59,535
1.248385,1775665504.010830,599616439682744336,-846,61,536
1.253385,1775665504.010830,599616439682744336,-844,58,534
1.258385,1775665504.010830,599616439682744336,-842,61,536
1.263385,1775665504.010830,599616439682744336,-844,60,539
1.268385,1775665504.010830,599616439682744336,-843,52,538
1.273385,1775665504.010830,599616439682744336,-843,52,540
1.278385,1775665504.010830,599616439682744336,-843,55,538
1.283385,1775665504.010830,599616439682744336,-842,57,539
1.288385,1775665504.010830,599616439682744336,-842,56,537
1.293385,1775665504.010830,599616439682744336,-842,58,535
1.298385,1775665504.010830,599616439682744336,-841,59,536
1.303385,1775665504.010830,599616439682744336,-841,59,538
1.308385,1775665504.010830,599616439682744336,-843,57,538
1.313385,1775665504.010830,599616439682744336,-840,54,541
1.318385,1775665504.010830,599616439682744336,-842,54,541
1.323385,1775665504.010830,599616439682744336,-842,56,541
1.328385,1775665504.010830,599616439682744336,-841,57,538
1.333385,1775665504.010830,599616439682744336,-841,56,538
1.338385,1775665504.010830,599616439682744336,-840,60,536
1.343385,1775665504.010830,599616439682744336,-842,56,538
1.348385,1775665504.010830,599616439682744336,-844,57,535
1.353385,1775665504.010830,599616439682744336,-845,56,538
1.358385,1775665504.010830,599616439682744336,-847,57,534
1.363385,1775665504.010830,599616439682744336,-845,60,533
1.368385,1775665504.010830,599616439682744336,-846,53,538
1.373385,1775665504.010830,599616439682744336,-844,60,539
1.378385,1775665504.010830,599616439682744336,-844,60,537
1.383385,1775665504.010830,599616439682744336,-842,56,539
1.388385,1775665504.010830,599616439682744336,-839,58,541
1.393385,1775665504.010830,599616439682744336,-838,61,542
1.398385,1775665504.010830,599616439682744336,-838,58,541
1.403385,1775665504.010830,599616439682744336,-839,52,538
1.408385,1775665504.010830,599616439682744336,-839,55,538
1.409565,1775665504.189922,599616439858924750,-838,54,544
1.414565,1775665504.189922,599616439858924750,-836,52,537
1.419565,1775665504.189922,599616439858924750,-838,54,533
1.424565,1775665504.189922,599616439858924750,-837,56,537
1.429565,1775665504.189922,599616439858924750,-836,55,544
1.434565,1775665504.189922,599616439858924750,-833,54,545
1.439565,1775665504.189922,599616439858924750,-835,55,547
1.444565,1775665504.189922,599616439858924750,-834,57,544
1.449565,1775665504.189922,599616439858924750,-837,54,548
1.454565,1775665504.189922,599616439858924750,-839,54,541
1.459565,1775665504.189922,599616439858924750,-841,54,539
1.464565,1775665504.189922,599616439858924750,-841,55,537
1.469565,1775665504.189922,599616439858924750,-840,56,536
1.474565,1775665504.189922,599616439858924750,-838,56,536
1.479565,1775665504.189922,599616439858924750,-837,54,538
1.484565,1775665504.189922,599616439858924750,-834,57,539
1.489565,1775665504.189922,599616439858924750,-836,56,539
1.494565,1775665504.189922,599616439858924750,-836,56,544
1.499565,1775665504.189922,599616439858924750,-839,58,543
1.504565,1775665504.189922,599616439858924750,-837,58,545
1.509565,1775665504.189922,599616439858924750,-839,58,546
1.514565,1775665504.189922,599616439858924750,-840,60,543
1.519565,1775665504.189922,599616439858924750,-840,58,544
1.524565,1775665504.189922,599616439858924750,-841,61,545
1.529565,1775665504.189922,599616439858924750,-844,57,542
1.534565,1775665504.189922,599616439858924750,-843,57,541
1.539565,1775665504.189922,599616439858924750,-846,55,542
1.544565,1775665504.189922,599616439858924750,-845,55,542
1.549565,1775665504.189922,599616439858924750,-844,53,539
1.554565,1775665504.189922,599616439858924750,-844,55,541
1.559565,1775665504.189922,599616439858924750,-841,55,539
1.564565,1775665504.189922,599616439858924750,-841,53,539
1.569565,1775665504.189922,599616439858924750,-839,55,541
1.574565,1775665504.189922,599616439858924750,-835,55,541
1.579565,1775665504.189922,599616439858924750,-834,58,539
1.584565,1775665504.189922,599616439858924750,-835,57,539
1.585746,1775665504.323911,599616440035105164,-830,53,540
1.590746,1775665504.323911,599616440035105164,-830,56,541
1.595746,1775665504.323911,599616440035105164,-831,55,542
1.600746,1775665504.323911,599616440035105164,-830,57,539
1.605746,1775665504.323911,599616440035105164,-832,59,540
1.610746,1775665504.323911,599616440035105164,-833,59,541
1.615746,1775665504.323911,599616440035105164,-834,56,543
1.620746,1775665504.323911,599616440035105164,-831,56,543
1.625746,1775665504.323911,599616440035105164,-833,56,542
1.630746,1775665504.323911,599616440035105164,-835,51,549
1.635746,1775665504.323911,599616440035105164,-834,53,546
1.640746,1775665504.323911,599616440035105164,-834,53,544
1.645746,1775665504.323911,599616440035105164,-838,51,546
1.650746,1775665504.323911,599616440035105164,-836,55,543
1.655746,1775665504.323911,599616440035105164,-835,54,545
1.660746,1775665504.323911,599616440035105164,-838,53,545
1.665746,1775665504.323911,599616440035105164,-834,56,545
1.670746,1775665504.323911,599616440035105164,-836,55,543
1.675746,1775665504.323911,599616440035105164,-838,57,541
1.680746,1775665504.323911,599616440035105164,-838,53,541
1.685746,1775665504.323911,599616440035105164,-842,56,545
1.690746,1775665504.323911,599616440035105164,-836,57,550
1.695746,1775665504.323911,599616440035105164,-836,56,551
1.700746,1775665504.323911,599616440035105164,-835,59,551
1.705746,1775665504.323911,599616440035105164,-839,57,552
1.710746,1775665504.323911,599616440035105164,-842,52,547
1.715746,1775665504.323911,599616440035105164,-842,57,544
1.720746,1775665504.323911,599616440035105164,-842,54,545
1.725746,1775665504.323911,599616440035105164,-840,52,538
1.730746,1775665504.323911,599616440035105164,-842,53,540
1.735746,1775665504.323911,599616440035105164,-840,52,540
1.740746,1775665504.323911,599616440035105164,-838,52,537
1.745746,1775665504.323911,599616440035105164,-837,55,537
1.750746,1775665504.323911,599616440035105164,-834,54,539
1.755746,1775665504.323911,599616440035105164,-831,51,541
1.760746,1775665504.323911,599616440035105164,-831,54,541
1.761957,1775665504.548921,599616440211316106,-830,50,549
1.766957,1775665504.548921,599616440211316106,-831,49,549
1.771957,1775665504.548921,599616440211316106,-834,52,548
1.776957,1775665504.548921,599616440211316106,-834,56,546
1.781957,1775665504.548921,599616440211316106,-834,55,544
1.786957,1775665504.548921,599616440211316106,-838,55,545
1.791957,1775665504.548921,599616440211316106,-838,55,546
1.796957,1775665504.548921,599616440211316106,-838,58,544
1.801957,1775665504.548921,599616440211316106,-836,56,545
1.806957,1775665504.548921,599616440211316106,-837,55,542
1.811957,1775665504.548921,599616440211316106,-838,52,545
1.816957,1775665504.548921,599616440211316106,-840,52,544
1.821957,1775665504.548921,599616440211316106,-838,55,545
1.826957,1775665504.548921,599616440211316106,-837,52,543
1.831957,1775665504.548921,599616440211316106,-836,56,546
1.836957,1775665504.548921,599616440211316106,-834,56,546
1.841957,1775665504.548921,599616440211316106,-834,55,547
1.846957,1775665504.548921,599616440211316106,-835,58,548
1.851957,1775665504.548921,599616440211316106,-831,55,545
1.856957,1775665504.548921,599616440211316106,-834,54,551
1.861957,1775665504.548921,599616440211316106,-836,54,548
1.866957,1775665504.548921,599616440211316106,-833,57,547
1.871957,1775665504.548921,599616440211316106,-836,55,545
1.876957,1775665504.548921,599616440211316106,-836,55,544
1.881957,1775665504.548921,599616440211316106,-834,55,541
1.886957,1775665504.548921,599616440211316106,-833,55,542
1.891957,1775665504.548921,599616440211316106,-836,55,541
1.896957,1775665504.548921,599616440211316106,-834,53,541
1.901957,1775665504.548921,599616440211316106,-834,56,541
1.906957,1775665504.548921,599616440211316106,-834,53,541
1.911957,1775665504.548921,599616440211316106,-835,54,542
1.916957,1775665504.548921,599616440211316106,-833,53,544
1.921957,1775665504.548921,599616440211316106,-833,53,541
1.926957,1775665504.548921,599616440211316106,-833,54,543
1.931957,1775665504.548921,599616440211316106,-830,52,540
1.936957,1775665504.548921,599616440211316106,-833,57,542
1.938107,1775665504.685916,599616440387465982,-836,50,541
1.943107,1775665504.685916,599616440387465982,-834,59,540
1.948107,1775665504.685916,599616440387465982,-833,57,544
1.953107,1775665504.685916,599616440387465982,-835,54,544
1.958107,1775665504.685916,599616440387465982,-831,54,542
1.963107,1775665504.685916,599616440387465982,-834,54,542
1.968107,1775665504.685916,599616440387465982,-832,57,541
1.973107,1775665504.685916,599616440387465982,-833,57,541
1.978106,1775665504.685916,599616440387465982,-833,57,541
1.983106,1775665504.685916,599616440387465982,-834,58,541
1.988106,1775665504.685916,599616440387465982,-831,54,544
1.993106,1775665504.685916,599616440387465982,-834,53,546
1.998106,1775665504.685916,599616440387465982,-834,54,543
2.003106,1775665504.685916,599616440387465982,-834,54,542
2.008106,1775665504.685916,599616440387465982,-834,55,544
2.013106,1775665504.685916,599616440387465982,-834,56,543
2.018106,1775665504.685916,599616440387465982,-836,56,544
2.023106,1775665504.685916,599616440387465982,-834,56,541
2.028106,1775665504.685916,599616440387465982,-833,56,540
2.033106,1775665504.685916,599616440387465982,-835,54,544
2.038106,1775665504.685916,599616440387465982,-833,55,541
2.043106,1775665504.685916,599616440387465982,-831,54,542
2.048106,1775665504.685916,599616440387465982,-835,58,541
2.053107,1775665504.685916,599616440387465982,-834,55,541
2.058107,1775665504.685916,599616440387465982,-838,56,544
2.063107,1775665504.685916,599616440387465982,-836,57,541
2.068107,1775665504.685916,599616440387465982,-835,57,541
2.073107,1775665504.685916,599616440387465982,-836,58,542
2.078107,1775665504.685916,599616440387465982,-835,51,545
2.083107,1775665504.685916,599616440387465982,-837,51,542
2.088107,1775665504.685916,599616440387465982,-835,56,542
2.093107,1775665504.685916,599616440387465982,-836,58,541
2.098107,1775665504.685916,599616440387465982,-836,56,543
2.103106,1775665504.685916,599616440387465982,-835,53,541
2.108106,1775665504.685916,599616440387465982,-834,59,544
2.113106,1775665504.685916,599616440387465982,-837,56,541
2.114318,1775665504.863951,599616440563676934,-837,52,541
2.119318,1775665504.863951,599616440563676934,-836,56,542
2.124318,1775665504.863951,599616440563676934,-838,47,545
2.129318,1775665504.863951,599616440563676934,-835,53,546
2.134318,1775665504.863951,599616440563676934,-836,54,541
2.139318,1775665504.863951,599616440563676934,-835,54,544
2.144318,1775665504.863951,599616440563676934,-837,53,541
2.149318,1775665504.863951,599616440563676934,-838,52,541
2.154317,1775665504.863951,599616440563676934,-834,54,541
2.159317,1775665504.863951,599616440563676934,-836,55,542
2.164317,1775665504.863951,599616440563676934,-836,55,543
2.169317,1775665504.863951,599616440563676934,-835,53,540
2.174317,1775665504.863951,599616440563676934,-836,54,542
2.179317,1775665504.863951,599616440563676934,-834,56,540
2.184317,1775665504.863951,599616440563676934,-836,54,542
2.189317,1775665504.863951,599616440563676934,-835,56,543
2.194317,1775665504.863951,599616440563676934,-837,55,542
2.199317,1775665504.863951,599616440563676934,-837,54,544
2.204317,1775665504.863951,599616440563676934,-835,53,544
2.209317,1775665504.863951,599616440563676934,-838,56,543
2.214317,1775665504.863951,599616440563676934,-836,55,544
2.219317,1775665504.863951,599616440563676934,-838,54,542
2.224317,1775665504.863951,599616440563676934,-838,56,542
2.229318,1775665504.863951,599616440563676934,-838,56,541
2.234318,1775665504.863951,599616440563676934,-837,56,543
2.239318,1775665504.863951,599616440563676934,-839,55,541
2.244318,1775665504.863951,599616440563676934,-837,56,541
2.249318,1775665504.863951,599616440563676934,-838,55,542
2.254318,1775665504.863951,599616440563676934,-838,55,542
2.259318,1775665504.863951,599616440563676934,-838,56,544
2.264318,1775665504.863951,599616440563676934,-838,55,545
2.269318,1775665504.863951,599616440563676934,-840,55,542
2.274318,1775665504.863951,599616440563676934,-839,54,543
2.279317,1775665504.863951,599616440563676934,-840,58,542
2.284317,1775665504.863951,599616440563676934,-840,57,543
2.289317,1775665504.863951,599616440563676934,-839,54,541
2.290467,1775665505.044838,599616440739826810,-839,54,546
2.295467,1775665505.044838,599616440739826810,-841,56,542
2.300467,1775665505.044838,599616440739826810,-838,55,541
2.305467,1775665505.044838,599616440739826810,-837,51,543
2.310467,1775665505.044838,599616440739826810,-840,51,543
2.315467,1775665505.044838,599616440739826810,-840,55,541
2.320467,1775665505.044838,599616440739826810,-843,57,540
2.325467,1775665505.044838,599616440739826810,-845,55,538
2.330467,1775665505.044838,599616440739826810,-845,56,536
2.335467,1775665505.044838,599616440739826810,-846,56,539
2.340467,1775665505.044838,599616440739826810,-847,56,540
2.345467,1775665505.044838,599616440739826810,-843,57,539
2.350467,1775665505.044838,599616440739826810,-838,56,541
2.355467,1775665505.044838,599616440739826810,-834,57,542
2.360467,1775665505.044838,599616440739826810,-832,57,543
2.365467,1775665505.044838,599616440739826810,-831,58,542
2.370467,1775665505.044838,599616440739826810,-832,54,541
2.375467,1775665505.044838,599616440739826810,-832,57,541
2.380467,1775665505.044838,599616440739826810,-835,55,541
2.385467,1775665505.044838,599616440739826810,-837,54,542
2.390467,1775665505.044838,599616440739826810,-835,55,540
2.395467,1775665505.044838,599616440739826810,-837,54,543
2.400467,1775665505.044838,599616440739826810,-835,56,542
2.405467,1775665505.044838,599616440739826810,-836,57,546
2.410467,1775665505.044838,599616440739826810,-838,57,542
2.415467,1775665505.044838,599616440739826810,-839,56,542
2.420467,1775665505.044838,599616440739826810,-840,56,541
2.425467,1775665505.044838,599616440739826810,-840,58,538
2.430467,1775665505.044838,599616440739826810,-840,56,535
2.435467,1775665505.044838,599616440739826810,-839,56,535
2.440467,1775665505.044838,599616440739826810,-841,58,533
2.445467,1775665505.044838,599616440739826810,-839,57,535
2.450467,1775665505.044838,599616440739826810,-836,58,538
2.455467,1775665505.044838,599616440739826810,-837,57,538
2.460467,1775665505.044838,599616440739826810,-836,58,539
2.465467,1775665505.044838,599616440739826810,-837,58,540
2.466617,1775665505.224918,599616440915976706,-838,57,542
2.471617,1775665505.224918,599616440915976706,-839,58,542
2.476617,1775665505.224918,599616440915976706,-842,58,544
2.481617,1775665505.224918,599616440915976706,-841,58,544
2.486617,1775665505.224918,599616440915976706,-841,55,543
2.491617,1775665505.224918,599616440915976706,-846,55,541
2.496617,1775665505.224918,599616440915976706,-841,57,540
2.501617,1775665505.224918,599616440915976706,-844,55,538
2.506617,1775665505.224918,599616440915976706,-845,58,538
2.511617,1775665505.224918,599616440915976706,-846,56,539
2.516617,1775665505.224918,599616440915976706,-847,55,537
2.521617,1775665505.224918,599616440915976706,-844,56,538
2.526617,1775665505.224918,599616440915976706,-844,57,537
2.531617,1775665505.224918,599616440915976706,-845,55,538
2.536617,1775665505.224918,599616440915976706,-842,58,540
2.541617,1775665505.224918,599616440915976706,-844,58,536
2.546617,1775665505.224918,599616440915976706,-840,58,538
2.551617,1775665505.224918,599616440915976706,-839,61,537
2.556617,1775665505.224918,599616440915976706,-838,60,537
2.561617,1775665505.224918,599616440915976706,-839,62,536
2.566617,1775665505.224918,599616440915976706,-836,60,537
2.571617,1775665505.224918,599616440915976706,-837,58,536
2.576617,1775665505.224918,599616440915976706,-837,56,538
2.581617,1775665505.224918,599616440915976706,-837,56,536
2.586617,1775665505.224918,599616440915976706,-839,54,540
2.591617,1775665505.224918,599616440915976706,-838,59,536
2.596617,1775665505.224918,599616440915976706,-837,56,537
2.601617,1775665505.224918,599616440915976706,-839,55,538
2.606617,1775665505.224918,599616440915976706,-839,54,535
2.611617,1775665505.224918,599616440915976706,-841,55,538
2.616617,1775665505.224918,599616440915976706,-843,53,538
2.621617,1775665505.224918,599616440915976706,-841,56,538
2.626617,1775665505.224918,599616440915976706,-840,55,540
2.631617,1775665505.224918,599616440915976706,-844,55,540
2.636617,1775665505.224918,599616440915976706,-844,56,539
2.641617,1775665505.224918,599616440915976706,-847,55,534
2.642676,1775665505.404916,599616441092035054,-846,52,536
2.647676,1775665505.404916,599616441092035054,-846,52,539
2.652676,1775665505.404916,599616441092035054,-842,56,540
2.657676,1775665505.404916,599616441092035054,-842,59,544
2.662676,1775665505.404916,599616441092035054,-840,54,543
2.667676,1775665505.404916,599616441092035054,-845,58,546
2.672676,1775665505.404916,599616441092035054,-844,59,545
2.677676,1775665505.404916,599616441092035054,-842,55,542
2.682676,1775665505.404916,599616441092035054,-847,60,538
2.687676,1775665505.404916,599616441092035054,-851,57,537
2.692676,1775665505.404916,599616441092035054,-847,56,537
2.697676,1775665505.404916,599616441092035054,-850,54,536
2.702676,1775665505.404916,599616441092035054,-847,54,532
2.707676,1775665505.404916,599616441092035054,-850,54,532
2.712676,1775665505.404916,599616441092035054,-846,52,531
2.717676,1775665505.404916,599616441092035054,-843,50,534
2.722676,1775665505.404916,599616441092035054,-841,52,536
2.727676,1775665505.404916,599616441092035054,-842,51,533
2.732676,1775665505.404916,599616441092035054,-840,56,537
2.737676,1775665505.404916,599616441092035054,-841,54,537
2.742676,1775665505.404916,599616441092035054,-842,54,537
2.747676,1775665505.404916,599616441092035054,-841,57,535
2.752676,1775665505.404916,599616441092035054,-842,56,537
2.757676,1775665505.404916,599616441092035054,-842,56,538
2.762676,1775665505.404916,599616441092035054,-842,60,536
2.767676,1775665505.404916,599616441092035054,-842,56,536
2.772676,1775665505.404916,599616441092035054,-841,58,537
2.777676,1775665505.404916,599616441092035054,-843,60,535
2.782676,1775665505.404916,599616441092035054,-843,56,537
2.787676,1775665505.404916,599616441092035054,-844,56,534
2.792676,1775665505.404916,599616441092035054,-845,57,536
2.797676,1775665505.404916,599616441092035054,-844,56,536
2.802676,1775665505.404916,599616441092035054,-843,55,537
2.807676,1775665505.404916,599616441092035054,-842,54,538
2.812676,1775665505.404916,599616441092035054,-844,57,535
2.817676,1775665505.404916,599616441092035054,-841,60,537
2.818856,1775665505.585013,599616441268215472,-848,63,541
2.823856,1775665505.585013,599616441268215472,-842,59,538
2.828856,1775665505.585013,599616441268215472,-843,59,537
2.833856,1775665505.585013,599616441268215472,-843,58,536
2.838856,1775665505.585013,599616441268215472,-844,61,536
2.843856,1775665505.585013,599616441268215472,-845,53,538
2.848856,1775665505.585013,599616441268215472,-846,56,538
2.853856,1775665505.585013,599616441268215472,-843,57,536
2.858856,1775665505.585013,599616441268215472,-844,56,535
2.863856,1775665505.585013,599616441268215472,-842,56,534
2.868856,1775665505.585013,599616441268215472,-845,55,533
2.873856,1775665505.585013,599616441268215472,-847,55,535
2.878856,1775665505.585013,599616441268215472,-845,57,534
2.883856,1775665505.585013,599616441268215472,-843,54,534
2.888856,1775665505.585013,599616441268215472,-843,54,535
2.893856,1775665505.585013,599616441268215472,-842,57,534
2.898856,1775665505.585013,599616441268215472,-843,56,535
2.903856,1775665505.585013,599616441268215472,-844,57,534
2.908856,1775665505.585013,599616441268215472,-845,59,533
2.913856,1775665505.585013,599616441268215472,-843,56,533
2.918856,1775665505.585013,599616441268215472,-844,57,534
2.923856,1775665505.585013,599616441268215472,-844,60,532
2.928856,1775665505.585013,599616441268215472,-843,60,533
2.933856,1775665505.585013,599616441268215472,-843,57,534
2.938856,1775665505.585013,599616441268215472,-843,55,535
2.943856,1775665505.585013,599616441268215472,-845,60,534
2.948856,1775665505.585013,599616441268215472,-843,60,534
2.953856,1775665505.585013,599616441268215472,-844,57,535
2.958856,1775665505.585013,599616441268215472,-843,59,533
2.963856,1775665505.585013,599616441268215472,-843,62,535
2.968856,1775665505.585013,599616441268215472,-842,60,536
2.973856,1775665505.585013,599616441268215472,-846,60,535
2.978856,1775665505.585013,599616441268215472,-843,56,535
2.983856,1775665505.585013,599616441268215472,-845,54,538
2.988856,1775665505.585013,599616441268215472,-843,58,537
2.993856,1775665505.585013,599616441268215472,-843,59,535
2.995006,1775665505.765068,599616441444365358,-845,53,539
3.000006,1775665505.765068,599616441444365358,-845,59,538
3.005006,1775665505.765068,599616441444365358,-845,61,535
3.010006,1775665505.765068,599616441444365358,-844,61,534
3.015006,1775665505.765068,599616441444365358,-846,60,533
3.020006,1775665505.765068,599616441444365358,-848,57,533
3.025006,1775665505.765068,599616441444365358,-844,55,539
3.030006,1775665505.765068,599616441444365358,-845,55,536
3.035006,1775665505.765068,599616441444365358,-846,57,535
3.040006,1775665505.765068,599616441444365358,-844,60,535
3.045006,1775665505.765068,599616441444365358,-842,58,533
3.050006,1775665505.765068,599616441444365358,-845,58,535
3.055006,1775665505.765068,599616441444365358,-844,58,535
3.060006,1775665505.765068,599616441444365358,-842,59,534
3.065006,1775665505.765068,599616441444365358,-844,60,534
3.070006,1775665505.765068,599616441444365358,-844,57,534
3.075006,1775665505.765068,599616441444365358,-842,60,535
3.080006,1775665505.765068,599616441444365358,-845,58,534
3.085006,1775665505.765068,599616441444365358,-843,57,536
3.090006,1775665505.765068,599616441444365358,-843,55,534
3.095006,1775665505.765068,599616441444365358,-847,58,535
3.100006,1775665505.765068,599616441444365358,-843,55,537
3.105006,1775665505.765068,599616441444365358,-844,60,537
3.110006,1775665505.765068,599616441444365358,-843,58,534
3.115006,1775665505.765068,599616441444365358,-844,55,534
3.120006,1775665505.765068,599616441444365358,-844,57,537
3.125006,1775665505.765068,599616441444365358,-844,56,534
3.130006,1775665505.765068,599616441444365358,-845,62,534
3.135006,1775665505.765068,599616441444365358,-844,57,533
3.140006,1775665505.765068,599616441444365358,-846,57,536
3.145006,1775665505.765068,599616441444365358,-844,58,534
3.150006,1775665505.765068,599616441444365358,-844,57,533
3.155006,1775665505.765068,599616441444365358,-843,57,533
3.160006,1775665505.765068,599616441444365358,-842,58,535
3.165006,1775665505.765068,599616441444365358,-843,58,534
3.170006,1775665505.765068,599616441444365358,-844,59,532
3.171034,1775665505.944848,599616441620393178,-845,59,540
3.176034,1775665505.944848,599616441620393178,-842,59,535
3.181034,1775665505.944848,599616441620393178,-842,60,533
3.186034,1775665505.944848,599616441620393178,-844,56,532
3.191034,1775665505.944848,599616441620393178,-842,60,534
3.196034,1775665505.944848,599616441620393178,-845,56,534
3.201034,1775665505.944848,599616441620393178,-844,55,537
3.206034,1775665505.944848,599616441620393178,-842,53,539
3.211034,1775665505.944848,599616441620393178,-843,55,539
3.216034,1775665505.944848,599616441620393178,-845,57,537
3.221034,1775665505.944848,599616441620393178,-844,57,538
3.226034,1775665505.944848,599616441620393178,-844,58,538
3.231034,1775665505.944848,599616441620393178,-844,57,537
3.236034,1775665505.944848,599616441620393178,-848,58,535
3.241034,1775665505.944848,599616441620393178,-844,56,536
3.246034,1775665505.944848,599616441620393178,-845,59,534
3.251034,1775665505.944848,599616441620393178,-844,55,538
3.256034,1775665505.944848,599616441620393178,-845,54,537
3.261034,1775665505.944848,599616441620393178,-845,59,535
3.266034,1775665505.944848,599616441620393178,-846,57,534
3.271034,1775665505.944848,599616441620393178,-843,57,532
3.276034,1775665505.944848,599616441620393178,-842,58,532
3.281034,1775665505.944848,599616441620393178,-846,57,530
3.286034,1775665505.944848,599616441620393178,-842,56,529
3.291034,1775665505.944848,599616441620393178,-844,57,530
3.296034,1775665505.944848,599616441620393178,-845,54,532
3.301034,1775665505.944848,599616441620393178,-847,52,529
3.306034,1775665505.944848,599616441620393178,-844,54,533
3.311034,1775665505.944848,599616441620393178,-844,61,534
3.316034,1775665505.944848,599616441620393178,-842,62,536
3.321034,1775665505.944848,599616441620393178,-841,60,535
3.326034,1775665505.944848,599616441620393178,-841,61,537
3.331034,1775665505.944848,599616441620393178,-842,62,537
3.336034,1775665505.944848,599616441620393178,-844,61,537
3.341034,1775665505.944848,599616441620393178,-848,59,537
3.346034,1775665505.944848,599616441620393178,-846,59,534
3.347153,1775665506.124833,599616441796512550,-844,60,539
3.352153,1775665506.124833,599616441796512550,-842,55,533
3.357153,1775665506.124833,599616441796512550,-839,57,533
3.362153,1775665506.124833,599616441796512550,-839,57,532
3.367153,1775665506.124833,599616441796512550,-839,57,532
3.372153,1775665506.124833,599616441796512550,-841,57,534
3.377153,1775665506.124833,599616441796512550,-840,59,538
3.382153,1775665506.124833,599616441796512550,-840,56,540
3.387153,1775665506.124833,599616441796512550,-842,55,542
3.392153,1775665506.124833,599616441796512550,-842,58,539
3.397153,1775665506.124833,599616441796512550,-842,55,537
3.402153,1775665506.124833,599616441796512550,-844,55,531
3.407153,1775665506.124833,599616441796512550,-844,56,532
3.412153,1775665506.124833,599616441796512550,-842,56,529
3.417153,1775665506.124833,599616441796512550,-842,58,524
3.422153,1775665506.124833,599616441796512550,-842,60,525
3.427153,1775665506.124833,599616441796512550,-842,61,528
3.432153,1775665506.124833,599616441796512550,-838,60,531
3.437153,1775665506.124833,599616441796512550,-839,60,531
3.442153,1775665506.124833,599616441796512550,-839,60,535
3.447153,1775665506.124833,599616441796512550,-840,61,534
3.452153,1775665506.124833,599616441796512550,-839,60,535
3.457153,1775665506.124833,599616441796512550,-841,61,538
3.462153,1775665506.124833,599616441796512550,-843,60,538
3.467153,1775665506.124833,599616441796512550,-844,59,539
3.472153,1775665506.124833,599616441796512550,-845,57,539
3.477153,1775665506.124833,599616441796512550,-846,55,539
3.482153,1775665506.124833,599616441796512550,-847,55,538
3.487153,1775665506.124833,599616441796512550,-846,54,537
3.492153,1775665506.124833,599616441796512550,-850,56,537
3.497153,1775665506.124833,599616441796512550,-849,57,537
3.502153,1775665506.124833,599616441796512550,-847,57,533
3.507153,1775665506.124833,599616441796512550,-848,60,534
3.512153,1775665506.124833,599616441796512550,-847,62,534
3.517153,1775665506.124833,599616441796512550,-844,60,533
3.522153,1775665506.124833,599616441796512550,-843,57,537
3.523242,1775665506.303825,599616441972601436,-839,55,539
3.528242,1775665506.303825,599616441972601436,-842,60,535
3.533242,1775665506.303825,599616441972601436,-839,61,534
3.538242,1775665506.303825,599616441972601436,-841,62,534
3.543242,1775665506.303825,599616441972601436,-839,62,535
3.548242,1775665506.303825,599616441972601436,-840,62,534
3.553242,1775665506.303825,599616441972601436,-840,60,533
3.558242,1775665506.303825,599616441972601436,-841,60,535
3.563242,1775665506.303825,599616441972601436,-839,56,536
3.568242,1775665506.303825,599616441972601436,-842,55,535
3.573242,1775665506.303825,599616441972601436,-841,56,535
3.578242,1775665506.303825,599616441972601436,-844,58,536
3.583242,1775665506.303825,599616441972601436,-843,58,534
3.588242,1775665506.303825,599616441972601436,-842,54,536
3.593242,1775665506.303825,599616441972601436,-843,56,536
3.598242,1775665506.303825,599616441972601436,-842,57,536
3.603242,1775665506.303825,599616441972601436,-843,58,535
3.608242,1775665506.303825,599616441972601436,-843,56,538
3.613242,1775665506.303825,599616441972601436,-843,59,537
3.618242,1775665506.303825,599616441972601436,-844,59,536
3.623242,1775665506.303825,599616441972601436,-843,61,534
3.628242,1775665506.303825,599616441972601436,-845,58,532
3.633242,1775665506.303825,599616441972601436,-846,57,536
3.638242,1775665506.303825,599616441972601436,-844,57,535
3.643242,1775665506.303825,599616441972601436,-844,62,536
3.648242,1775665506.303825,599616441972601436,-842,59,537
3.653242,1775665506.303825,599616441972601436,-844,56,537
3.658242,1775665506.303825,599616441972601436,-845,57,536
3.663242,1775665506.303825,599616441972601436,-849,59,537
3.668242,1775665506.303825,599616441972601436,-850,59,533
3.673242,1775665506.303825,599616441972601436,-848,57,536
3.678242,1775665506.303825,599616441972601436,-845,53,534
3.683242,1775665506.303825,599616441972601436,-845,56,534
3.688242,1775665506.303825,599616441972601436,-845,57,532
3.693242,1775665506.303825,599616441972601436,-844,55,531
3.698242,1775665506.303825,599616441972601436,-841,57,533
3.699300,1775665506.439867,599616442148659768,-844,55,535
3.704300,1775665506.439867,599616442148659768,-841,56,531
3.709300,1775665506.439867,599616442148659768,-843,57,534
3.714300,1775665506.439867,599616442148659768,-845,59,532
3.719300,1775665506.439867,599616442148659768,-844,58,532
3.724300,1775665506.439867,599616442148659768,-843,60,533
3.729300,1775665506.439867,599616442148659768,-844,60,535
3.734300,1775665506.439867,599616442148659768,-842,58,532
3.739300,1775665506.439867,599616442148659768,-846,58,533
3.744300,1775665506.439867,599616442148659768,-846,55,538
3.749300,1775665506.439867,599616442148659768,-843,56,534
3.754300,1775665506.439867,599616442148659768,-845,54,534
3.759300,1775665506.439867,599616442148659768,-843,58,532
3.764300,1775665506.439867,599616442148659768,-843,54,533
3.769300,1775665506.439867,599616442148659768,-844,56,532
3.774300,1775665506.439867,599616442148659768,-845,56,533
3.779300,1775665506.439867,599616442148659768,-846,56,533
3.784300,1775665506.439867,599616442148659768,-845,60,533
3.789300,1775665506.439867,599616442148659768,-846,55,536
3.794300,1775665506.439867,599616442148659768,-847,58,537
3.799300,1775665506.439867,599616442148659768,-846,58,533
3.804300,1775665506.439867,599616442148659768,-849,59,534
3.809300,1775665506.439867,599616442148659768,-847,59,535
3.814300,1775665506.439867,599616442148659768,-847,58,535
3.819300,1775665506.439867,599616442148659768,-846,60,533
3.824300,1775665506.439867,599616442148659768,-844,59,533
3.829300,1775665506.439867,599616442148659768,-845,59,535
3.834300,1775665506.439867,599616442148659768,-846,59,535
3.839300,1775665506.439867,599616442148659768,-846,60,532
3.844300,1775665506.439867,599616442148659768,-844,56,533
3.849300,1775665506.439867,599616442148659768,-844,58,534
3.854300,1775665506.439867,599616442148659768,-847,59,533
3.859300,1775665506.439867,599616442148659768,-847,57,533
3.864300,1775665506.439867,599616442148659768,-847,56,531
3.869300,1775665506.439867,599616442148659768,-847,61,533
3.874300,1775665506.439867,599616442148659768,-845,60,531
3.875450,1775665506.618841,599616442324809658,-850,57,532
3.880450,1775665506.618841,599616442324809658,-848,56,534
3.885450,1775665506.618841,599616442324809658,-844,56,533
3.890450,1775665506.618841,599616442324809658,-846,57,534
3.895450,1775665506.618841,599616442324809658,-847,60,534
3.900450,1775665506.618841,599616442324809658,-844,59,531
3.905450,1775665506.618841,599616442324809658,-847,60,533
3.910450,1775665506.618841,599616442324809658,-844,61,533
3.915450,1775665506.618841,599616442324809658,-843,58,532
3.920450,1775665506.618841,599616442324809658,-848,58,533
3.925450,1775665506.618841,599616442324809658,-846,58,532
3.930450,1775665506.618841,599616442324809658,-848,62,532
3.935450,1775665506.618841,599616442324809658,-844,59,535
3.940450,1775665506.618841,599616442324809658,-847,62,532
3.945450,1775665506.618841,599616442324809658,-844,62,531
3.950450,1775665506.618841,599616442324809658,-845,60,533
3.955450,1775665506.618841,599616442324809658,-846,60,533
3.960450,1775665506.618841,599616442324809658,-848,60,531
3.965450,1775665506.618841,599616442324809658,-845,58,532
3.970450,1775665506.618841,599616442324809658,-846,59,532
3.975450,1775665506.618841,599616442324809658,-845,60,530
3.980450,1775665506.618841,599616442324809658,-845,60,532
3.985450,1775665506.618841,599616442324809658,-845,58,531
3.990450,1775665506.618841,599616442324809658,-845,58,530
3.995450,1775665506.618841,599616442324809658,-847,56,532
4.000450,1775665506.618841,599616442324809658,-845,59,532
4.005450,1775665506.618841,599616442324809658,-844,56,532
4.010450,1775665506.618841,599616442324809658,-844,58,532
4.015450,1775665506.618841,599616442324809658,-845,56,533
4.020450,1775665506.618841,599616442324809658,-845,60,532
4.025450,1775665506.618841,599616442324809658,-846,54,531
4.030450,1775665506.618841,599616442324809658,-848,60,532
4.035450,1775665506.618841,599616442324809658,-846,58,531
4.040450,1775665506.618841,599616442324809658,-845,60,529
4.045450,1775665506.618841,599616442324809658,-845,59,531
4.050450,1775665506.618841,599616442324809658,-844,60,531
4.051631,1775665506.799869,599616442500990082,-850,54,532
4.056631,1775665506.799869,599616442500990082,-844,57,535
4.061631,1775665506.799869,599616442500990082,-845,57,537
4.066631,1775665506.799869,599616442500990082,-848,55,534
4.071631,1775665506.799869,599616442500990082,-846,59,532
4.076631,1775665506.799869,599616442500990082,-846,57,531
4.081631,1775665506.799869,599616442500990082,-846,58,531
4.086631,1775665506.799869,599616442500990082,-847,57,531
4.091631,1775665506.799869,599616442500990082,-848,53,535
4.096631,1775665506.799869,599616442500990082,-846,55,530
4.101631,1775665506.799869,599616442500990082,-846,55,532
4.106631,1775665506.799869,599616442500990082,-847,52,535
4.111631,1775665506.799869,599616442500990082,-845,51,532
4.116631,1775665506.799869,599616442500990082,-846,54,533
4.121631,1775665506.799869,599616442500990082,-846,57,530
4.126631,1775665506.799869,599616442500990082,-849,59,531
4.131631,1775665506.799869,599616442500990082,-844,57,531
4.136631,1775665506.799869,599616442500990082,-848,58,529
4.141631,1775665506.799869,599616442500990082,-846,60,530
4.146631,1775665506.799869,599616442500990082,-849,58,530
4.151631,1775665506.799869,599616442500990082,-847,61,531
4.156631,1775665506.799869,599616442500990082,-849,61,531
4.161631,1775665506.799869,599616442500990082,-848,61,532
4.166631,1775665506.799869,599616442500990082,-848,60,532
4.171631,1775665506.799869,599616442500990082,-847,56,536
4.176631,1775665506.799869,599616442500990082,-849,57,533
4.181631,1775665506.799869,599616442500990082,-852,56,535
4.186631,1775665506.799869,599616442500990082,-846,55,533
4.191631,1775665506.799869,599616442500990082,-851,60,534
4.196631,1775665506.799869,599616442500990082,-853,57,537
4.201631,1775665506.799869,599616442500990082,-851,57,533
4.206631,1775665506.799869,599616442500990082,-851,59,537
4.211631,1775665506.799869,599616442500990082,-850,57,535
4.216631,1775665506.799869,599616442500990082,-849,57,535
4.221631,1775665506.799869,599616442500990082,-851,58,533
4.226631,1775665506.799869,599616442500990082,-848,57,535
4.227750,1775665506.979844,599616442677109440,-845,54,538
4.232750,1775665506.979844,599616442677109440,-852,57,533
4.237750,1775665506.979844,599616442677109440,-849,56,534
4.242750,1775665506.979844,599616442677109440,-846,51,534
4.247750,1775665506.979844,599616442677109440,-849,55,529
4.252750,1775665506.979844,599616442677109440,-845,54,531
4.257750,1775665506.979844,599616442677109440,-848,55,529
4.262750,1775665506.979844,599616442677109440,-849,57,529
4.267750,1775665506.979844,599616442677109440,-850,60,527
4.272750,1775665506.979844,599616442677109440,-850,55,532
4.277750,1775665506.979844,599616442677109440,-851,57,531
4.282750,1775665506.979844,599616442677109440,-845,60,536
4.287750,1775665506.979844,599616442677109440,-847,59,533
4.292750,1775665506.979844,599616442677109440,-847,59,536
4.297750,1775665506.979844,599616442677109440,-845,60,537
4.302750,1775665506.979844,599616442677109440,-845,64,535
4.307750,1775665506.979844,599616442677109440,-847,60,536
4.312750,1775665506.979844,599616442677109440,-850,60,534
4.317750,1775665506.979844,599616442677109440,-851,58,533
4.322750,1775665506.979844,599616442677109440,-850,56,532
4.327750,1775665506.979844,599616442677109440,-847,56,530
4.332750,1775665506.979844,599616442677109440,-844,54,528
4.337750,1775665506.979844,599616442677109440,-844,58,526
4.342750,1775665506.979844,599616442677109440,-844,59,529
4.347750,1775665506.979844,599616442677109440,-839,58,534
4.352750,1775665506.979844,599616442677109440,-842,57,536
4.357750,1775665506.979844,599616442677109440,-843,58,538
4.362750,1775665506.979844,599616442677109440,-840,60,537
4.367750,1775665506.979844,599616442677109440,-845,56,538
4.372750,1775665506.979844,599616442677109440,-843,53,534
4.377750,1775665506.979844,599616442677109440,-847,57,532
4.382750,1775665506.979844,599616442677109440,-846,56,531
4.387750,1775665506.979844,599616442677109440,-845,58,526
4.392750,1775665506.979844,599616442677109440,-844,57,526
4.397750,1775665506.979844,599616442677109440,-842,59,525
4.402750,1775665506.979844,599616442677109440,-841,58,529
4.403900,1775665507.204902,599616442853259346,-838,57,533
4.408900,1775665507.204902,599616442853259346,-840,60,533
4.413900,1775665507.204902,599616442853259346,-843,61,537
4.418900,1775665507.204902,599616442853259346,-844,57,541
4.423900,1775665507.204902,599616442853259346,-844,57,541
4.428900,1775665507.204902,599616442853259346,-845,59,537
4.433900,1775665507.204902,599616442853259346,-847,58,539
4.438900,1775665507.204902,599616442853259346,-846,57,536
4.443900,1775665507.204902,599616442853259346,-847,57,537
4.448900,1775665507.204902,599616442853259346,-848,58,535
4.453900,1775665507.204902,599616442853259346,-848,55,538
4.458900,1775665507.204902,599616442853259346,-850,59,534
4.463900,1775665507.204902,599616442853259346,-848,54,534
4.468900,1775665507.204902,599616442853259346,-851,58,535
4.473900,1775665507.204902,599616442853259346,-846,58,534
4.478900,1775665507.204902,599616442853259346,-845,63,533
4.483900,1775665507.204902,599616442853259346,-844,60,533
4.488900,1775665507.204902,599616442853259346,-842,60,532
4.493900,1775665507.204902,599616442853259346,-841,62,534
4.498900,1775665507.204902,599616442853259346,-842,65,532
4.503900,1775665507.204902,599616442853259346,-841,61,534
4.508900,1775665507.204902,599616442853259346,-842,61,532
4.513900,1775665507.204902,599616442853259346,-839,62,532
4.518900,1775665507.204902,599616442853259346,-840,62,533
4.523900,1775665507.204902,599616442853259346,-840,55,534
4.528900,1775665507.204902,599616442853259346,-840,58,533
4.533900,1775665507.204902,599616442853259346,-839,60,534
4.538900,1775665507.204902,599616442853259346,-837,55,534
4.543900,1775665507.204902,599616442853259346,-842,56,534
4.548900,1775665507.204902,599616442853259346,-841,56,534
4.553900,1775665507.204902,599616442853259346,-840,56,535
4.558900,1775665507.204902,599616442853259346,-838,56,536
4.563900,1775665507.204902,599616442853259346,-840,58,537
4.568900,1775665507.204902,599616442853259346,-843,59,537
4.573900,1775665507.204902,599616442853259346,-840,59,537
4.578900,1775665507.204902,599616442853259346,-842,56,538
4.579958,1775665507.339897,599616443029317694,-844,61,538
4.584958,1775665507.339897,599616443029317694,-841,58,537
4.589958,1775665507.339897,599616443029317694,-843,58,535
4.594958,1775665507.339897,599616443029317694,-842,55,538
4.599958,1775665507.339897,599616443029317694,-845,54,540
4.604958,1775665507.339897,599616443029317694,-841,59,541
4.609958,1775665507.339897,599616443029317694,-842,57,539
4.614958,1775665507.339897,599616443029317694,-842,58,540
4.619958,1775665507.339897,599616443029317694,-843,58,542
4.624958,1775665507.339897,599616443029317694,-844,58,537
4.629958,1775665507.339897,599616443029317694,-847,60,536
4.634958,1775665507.339897,599616443029317694,-846,59,535
4.639958,1775665507.339897,599616443029317694,-848,58,536
4.644958,1775665507.339897,599616443029317694,-844,50,536
4.649958,1775665507.339897,599616443029317694,-847,49,537
4.654958,1775665507.339897,599616443029317694,-841,51,535
4.659958,1775665507.339897,599616443029317694,-841,52,537
4.664958,1775665507.339897,599616443029317694,-840,54,536
4.669958,1775665507.339897,599616443029317694,-840,54,536
4.674958,1775665507.339897,599616443029317694,-839,58,536
4.679958,1775665507.339897,599616443029317694,-838,56,535
4.684958,1775665507.339897,599616443029317694,-838,55,537
4.689958,1775665507.339897,599616443029317694,-839,54,539
4.694958,1775665507.339897,599616443029317694,-840,54,541
4.699958,1775665507.339897,599616443029317694,-841,57,537
4.704958,1775665507.339897,599616443029317694,-840,56,539
4.709958,1775665507.339897,599616443029317694,-841,55,540
4.714958,1775665507.339897,599616443029317694,-843,56,537
4.719958,1775665507.339897,599616443029317694,-839,55,536
4.724958,1775665507.339897,599616443029317694,-839,55,539
4.729958,1775665507.339897,599616443029317694,-839,56,538
4.734958,1775665507.339897,599616443029317694,-843,54,539
4.739958,1775665507.339897,599616443029317694,-841,56,538
4.744958,1775665507.339897,599616443029317694,-842,54,539
4.749958,1775665507.339897,599616443029317694,-840,58,540
4.754958,1775665507.339897,599616443029317694,-841,60,540
4.756108,1775665507.521848,599616443205467584,-841,57,539
4.761108,1775665507.521848,599616443205467584,-838,59,539
4.766108,1775665507.521848,599616443205467584,-840,59,542
4.771108,1775665507.521848,599616443205467584,-841,60,538
4.776108,1775665507.521848,599616443205467584,-839,55,540
4.781108,1775665507.521848,599616443205467584,-841,54,543
4.786108,1775665507.521848,599616443205467584,-840,57,539
4.791108,1775665507.521848,599616443205467584,-841,56,541
4.796108,1775665507.521848,599616443205467584,-840,57,537
4.801108,1775665507.521848,599616443205467584,-839,57,539
4.806108,1775665507.521848,599616443205467584,-840,59,536
4.811108,1775665507.521848,599616443205467584,-839,57,537
4.816108,1775665507.521848,599616443205467584,-839,57,538
4.821108,1775665507.521848,599616443205467584,-840,57,539
4.826108,1775665507.521848,599616443205467584,-838,54,539
4.831108,1775665507.521848,599616443205467584,-841,54,539
4.836108,1775665507.521848,599616443205467584,-837,55,539
4.841108,1775665507.521848,599616443205467584,-839,57,540
4.846108,1775665507.521848,599616443205467584,-838,56,538
4.851108,1775665507.521848,599616443205467584,-840,58,537
4.856108,1775665507.521848,599616443205467584,-837,56,539
4.861108,1775665507.521848,599616443205467584,-840,57,536
4.866108,1775665507.521848,599616443205467584,-840,57,538
4.871108,1775665507.521848,599616443205467584,-838,56,541
4.876108,1775665507.521848,599616443205467584,-838,60,540
4.881108,1775665507.521848,599616443205467584,-836,57,539
4.886108,1775665507.521848,599616443205467584,-838,60,538
4.891108,1775665507.521848,599616443205467584,-835,57,538
4.896108,1775665507.521848,599616443205467584,-834,58,541
4.901108,1775665507.521848,599616443205467584,-834,59,540
4.906108,1775665507.521848,599616443205467584,-836,59,541
4.911108,1775665507.521848,599616443205467584,-837,57,541
4.916108,1775665507.521848,599616443205467584,-836,55,541
4.921108,1775665507.521848,599616443205467584,-840,56,541
4.926108,1775665507.521848,599616443205467584,-839,56,542
4.931108,1775665507.521848,599616443205467584,-837,54,541
4.932258,1775665507.700835,599616443381617480,-843,57,542
4.937258,1775665507.700835,599616443381617480,-839,57,541
4.942258,1775665507.700835,599616443381617480,-838,59,540
4.947258,1775665507.700835,599616443381617480,-837,56,541
4.952258,1775665507.700835,599616443381617480,-836,57,540
4.957258,1775665507.700835,599616443381617480,-835,57,542
4.962258,1775665507.700835,599616443381617480,-839,52,542
4.967258,1775665507.700835,599616443381617480,-840,53,542
4.972258,1775665507.700835,599616443381617480,-836,58,541
4.977258,1775665507.700835,599616443381617480,-836,57,541
4.982258,1775665507.700835,599616443381617480,-837,60,540
4.987258,1775665507.700835,599616443381617480,-835,57,540
4.992258,1775665507.700835,599616443381617480,-838,57,539
4.997258,1775665507.700835,599616443381617480,-839,55,543
5.002258,1775665507.700835,599616443381617480,-837,55,542
5.007258,1775665507.700835,599616443381617480,-839,58,543
5.012258,1775665507.700835,599616443381617480,-836,54,544
5.017258,1775665507.700835,599616443381617480,-836,56,542
5.022258,1775665507.700835,599616443381617480,-837,59,541
5.027258,1775665507.700835,599616443381617480,-836,56,542
5.032258,1775665507.700835,599616443381617480,-837,56,542
5.037258,1775665507.700835,599616443381617480,-837,58,543
5.042258,1775665507.700835,599616443381617480,-835,55,542
5.047258,1775665507.700835,599616443381617480,-835,58,542
5.052258,1775665507.700835,599616443381617480,-838,54,541
5.057258,1775665507.700835,599616443381617480,-835,55,542
5.062258,1775665507.700835,599616443381617480,-835,56,542
5.067258,1775665507.700835,599616443381617480,-835,55,542
5.072258,1775665507.700835,599616443381617480,-834,59,541
5.077258,1775665507.700835,599616443381617480,-834,56,543
5.082258,1775665507.700835,599616443381617480,-835,54,544
5.087258,1775665507.700835,599616443381617480,-835,59,546
5.092258,1775665507.700835,599616443381617480,-837,57,546
5.097258,1775665507.700835,599616443381617480,-837,57,545
5.102258,1775665507.700835,599616443381617480,-835,56,545
5.107258,1775665507.700835,599616443381617480,-834,55,547
5.108408,1775665507.879878,599616443557767376,-832,55,549
5.113408,1775665507.879878,599616443557767376,-832,57,545
5.118408,1775665507.879878,599616443557767376,-834,54,545
5.123408,1775665507.879878,599616443557767376,-836,54,544
5.128408,1775665507.879878,599616443557767376,-834,55,544
5.133408,1775665507.879878,599616443557767376,-834,56,544
5.138408,1775665507.879878,599616443557767376,-833,49,546
5.143408,1775665507.879878,599616443557767376,-833,50,546
5.148408,1775665507.879878,599616443557767376,-833,53,544
5.153408,1775665507.879878,599616443557767376,-836,50,545
5.158408,1775665507.879878,599616443557767376,-833,50,548
5.163408,1775665507.879878,599616443557767376,-834,55,548
5.168408,1775665507.879878,599616443557767376,-834,53,547
5.173408,1775665507.879878,599616443557767376,-834,56,546
5.178408,1775665507.879878,599616443557767376,-832,57,545
5.183408,1775665507.879878,599616443557767376,-833,55,546
5.188408,1775665507.879878,599616443557767376,-832,56,547
5.193408,1775665507.879878,599616443557767376,-832,54,544
5.198408,1775665507.879878,599616443557767376,-830,57,544
5.203408,1775665507.879878,599616443557767376,-833,55,542
5.208408,1775665507.879878,599616443557767376,-834,56,543
5.213408,1775665507.879878,599616443557767376,-832,55,545
5.218408,1775665507.879878,599616443557767376,-833,59,541
5.223408,1775665507.879878,599616443557767376,-836,58,542
5.228408,1775665507.879878,599616443557767376,-837,53,540
5.233408,1775665507.879878,599616443557767376,-837,48,545
5.238408,1775665507.879878,599616443557767376,-835,50,543
5.243408,1775665507.879878,599616443557767376,-834,50,539
5.248408,1775665507.879878,599616443557767376,-832,51,539
5.253408,1775665507.879878,599616443557767376,-827,54,542
5.258408,1775665507.879878,599616443557767376,-820,54,545
5.263408,1775665507.879878,599616443557767376,-817,52,544
5.268408,1775665507.879878,599616443557767376,-821,54,547
5.273408,1775665507.879878,599616443557767376,-822,55,549
5.278408,1775665507.879878,599616443557767376,-826,51,548
5.283408,1775665507.879878,599616443557767376,-830,53,545
5.284558,1775665508.058916,599616443733917272,-832,53,548
5.289558,1775665508.058916,599616443733917272,-834,53,546
5.294558,1775665508.058916,599616443733917272,-830,55,544
5.299558,1775665508.058916,599616443733917272,-832,53,546
5.304558,1775665508.058916,599616443733917272,-831,56,546
5.309558,1775665508.058916,599616443733917272,-834,55,546
5.314558,1775665508.058916,599616443733917272,-835,56,543
5.319558,1775665508.058916,599616443733917272,-838,53,543
5.324558,1775665508.058916,599616443733917272,-835,48,540
5.329558,1775665508.058916,599616443733917272,-837,57,539
5.334558,1775665508.058916,599616443733917272,-833,55,540
5.339558,1775665508.058916,599616443733917272,-832,52,540
5.344558,1775665508.058916,599616443733917272,-831,55,541
5.349558,1775665508.058916,599616443733917272,-832,56,542
5.354558,1775665508.058916,599616443733917272,-832,56,543
5.359558,1775665508.058916,599616443733917272,-832,57,542
5.364558,1775665508.058916,599616443733917272,-831,56,547
5.369558,1775665508.058916,599616443733917272,-834,58,547
5.374558,1775665508.058916,599616443733917272,-834,57,546
5.379558,1775665508.058916,599616443733917272,-835,55,546
5.384558,1775665508.058916,599616443733917272,-837,58,545
5.389558,1775665508.058916,599616443733917272,-836,57,544
5.394558,1775665508.058916,599616443733917272,-838,57,543
5.399558,1775665508.058916,599616443733917272,-840,55,544
5.404558,1775665508.058916,599616443733917272,-838,52,545
5.409558,1775665508.058916,599616443733917272,-839,47,547
5.414558,1775665508.058916,599616443733917272,-837,53,541
5.419558,1775665508.058916,599616443733917272,-835,53,543
5.424558,1775665508.058916,599616443733917272,-838,52,542
5.429558,1775665508.058916,599616443733917272,-836,56,542
5.434558,1775665508.058916,599616443733917272,-834,55,544
5.439558,1775665508.058916,599616443733917272,-833,55,543
5.444558,1775665508.058916,599616443733917272,-831,59,541
5.449558,1775665508.058916,599616443733917272,-831,56,542
5.454558,1775665508.058916,599616443733917272,-832,59,543
5.459558,1775665508.058916,599616443733917272,-831,55,544
5.460708,1775665508.239945,599616443910067168,-835,56,541
5.465708,1775665508.239945,599616443910067168,-832,58,543
5.470708,1775665508.239945,599616443910067168,-830,57,541
5.475708,1775665508.239945,599616443910067168,-832,58,540
5.480708,1775665508.239945,599616443910067168,-831,59,541
5.485708,1775665508.239945,599616443910067168,-832,56,543
5.490708,1775665508.239945,599616443910067168,-834,56,544
5.495708,1775665508.239945,599616443910067168,-832,55,542
5.500708,1775665508.239945,599616443910067168,-837,51,547
5.505708,1775665508.239945,599616443910067168,-839,52,548
5.510708,1775665508.239945,599616443910067168,-834,54,543
5.515708,1775665508.239945,599616443910067168,-837,55,543
5.520708,1775665508.239945,599616443910067168,-836,58,545
5.525708,1775665508.239945,599616443910067168,-836,59,542
5.530708,1775665508.239945,599616443910067168,-838,60,536
5.535708,1775665508.239945,599616443910067168,-840,58,537
5.540708,1775665508.239945,599616443910067168,-838,58,541
5.545708,1775665508.239945,599616443910067168,-835,57,547
5.550708,1775665508.239945,599616443910067168,-833,57,548
5.555708,1775665508.239945,599616443910067168,-834,61,548
5.560708,1775665508.239945,599616443910067168,-835,60,548
5.565708,1775665508.239945,599616443910067168,-836,59,549
5.570708,1775665508.239945,599616443910067168,-837,56,548
5.575708,1775665508.239945,599616443910067168,-839,55,545
5.580708,1775665508.239945,599616443910067168,-842,57,541
5.585708,1775665508.239945,599616443910067168,-842,55,541
5.590708,1775665508.239945,599616443910067168,-841,53,542
5.595708,1775665508.239945,599616443910067168,-839,51,539
5.600708,1775665508.239945,599616443910067168,-840,53,538
5.605708,1775665508.239945,599616443910067168,-839,52,536
5.610708,1775665508.239945,599616443910067168,-839,51,539
5.615708,1775665508.239945,599616443910067168,-837,46,542
5.620708,1775665508.239945,599616443910067168,-838,52,539
5.625708,1775665508.239945,599616443910067168,-836,55,538
5.630708,1775665508.239945,599616443910067168,-835,52,542
5.635708,1775665508.239945,599616443910067168,-835,55,543
5.636858,1775665508.374802,599616444086217064,-838,56,543
5.641858,1775665508.374802,599616444086217064,-837,56,541
5.646858,1775665508.374802,599616444086217064,-836,57,542
5.651858,1775665508.374802,599616444086217064,-838,56,542
5.656858,1775665508.374802,599616444086217064,-838,54,541
5.661858,1775665508.374802,599616444086217064,-838,58,539
5.666858,1775665508.374802,599616444086217064,-836,56,540
5.671858,1775665508.374802,599616444086217064,-836,54,539
5.676858,1775665508.374802,599616444086217064,-840,53,541
5.681858,1775665508.374802,599616444086217064,-841,54,541
5.686858,1775665508.374802,599616444086217064,-841,54,541
5.691858,1775665508.374802,599616444086217064,-837,58,542
5.696858,1775665508.374802,599616444086217064,-839,56,544
5.701858,1775665508.374802,599616444086217064,-839,55,541
5.706858,1775665508.374802,599616444086217064,-839,57,541
5.711858,1775665508.374802,599616444086217064,-840,59,540
5.716858,1775665508.374802,599616444086217064,-836,58,539
5.721858,1775665508.374802,599616444086217064,-842,61,539
5.726858,1775665508.374802,599616444086217064,-840,57,541
5.731858,1775665508.374802,599616444086217064,-842,60,541
5.736858,1775665508.374802,599616444086217064,-843,57,537
5.741858,1775665508.374802,599616444086217064,-842,59,539
5.746858,1775665508.374802,599616444086217064,-841,56,539
5.751858,1775665508.374802,599616444086217064,-840,55,538
5.756858,1775665508.374802,599616444086217064,-841,59,539
5.761858,1775665508.374802,599616444086217064,-840,57,537
5.766858,1775665508.374802,599616444086217064,-839,54,537
5.771858,1775665508.374802,599616444086217064,-840,52,540
5.776858,1775665508.374802,599616444086217064,-838,51,539
5.781858,1775665508.374802,599616444086217064,-839,53,539
5.786858,1775665508.374802,599616444086217064,-839,57,536
5.791858,1775665508.374802,599616444086217064,-843,55,537
5.796858,1775665508.374802,599616444086217064,-840,54,537
5.801858,1775665508.374802,599616444086217064,-838,54,535
5.806858,1775665508.374802,599616444086217064,-838,60,537
5.811858,1775665508.374802,599616444086217064,-840,58,537
5.812977,1775665508.554954,599616444262336432,-838,58,541
5.817977,1775665508.554954,599616444262336432,-840,54,540
5.822977,1775665508.554954,599616444262336432,-842,56,537
5.827977,1775665508.554954,599616444262336432,-842,56,539
5.832977,1775665508.554954,599616444262336432,-843,57,538
5.837977,1775665508.554954,599616444262336432,-838,57,538
5.842977,1775665508.554954,599616444262336432,-839,54,538
5.847977,1775665508.554954,599616444262336432,-842,57,539
5.852977,1775665508.554954,599616444262336432,-841,60,540
5.857977,1775665508.554954,599616444262336432,-841,56,538
5.862977,1775665508.554954,599616444262336432,-841,56,540
5.867977,1775665508.554954,599616444262336432,-841,59,540
5.872977,1775665508.554954,599616444262336432,-839,58,539
5.877977,1775665508.554954,599616444262336432,-844,59,539
5.882977,1775665508.554954,599616444262336432,-841,56,537
5.887977,1775665508.554954,599616444262336432,-843,59,538
5.892977,1775665508.554954,599616444262336432,-842,58,537
5.897977,1775665508.554954,599616444262336432,-841,55,538
5.902977,1775665508.554954,599616444262336432,-841,57,539
5.907977,1775665508.554954,599616444262336432,-841,58,538
5.912977,1775665508.554954,599616444262336432,-843,58,537
5.917977,1775665508.554954,599616444262336432,-842,58,536
5.922977,1775665508.554954,599616444262336432,-843,56,537
5.927977,1775665508.554954,599616444262336432,-840,60,538
5.932977,1775665508.554954,599616444262336432,-842,57,538
5.937977,1775665508.554954,599616444262336432,-842,56,539
5.942977,1775665508.554954,599616444262336432,-842,57,538
5.947977,1775665508.554954,599616444262336432,-840,57,539
5.952977,1775665508.554954,599616444262336432,-841,58,539
5.957977,1775665508.554954,599616444262336432,-841,57,536
5.962977,1775665508.554954,599616444262336432,-844,59,537
5.967977,1775665508.554954,599616444262336432,-842,57,536
5.972977,1775665508.554954,599616444262336432,-842,58,535
5.977977,1775665508.554954,599616444262336432,-840,61,537
5.982977,1775665508.554954,599616444262336432,-840,56,538
5.987977,1775665508.554954,599616444262336432,-843,60,538
5.989066,1775665508.734930,599616444438425318,-845,60,540
5.994066,1775665508.734930,599616444438425318,-842,52,541
5.999066,1775665508.734930,599616444438425318,-843,56,539
6.004066,1775665508.734930,599616444438425318,-843,57,538
6.009066,1775665508.734930,599616444438425318,-844,55,536
6.014066,1775665508.734930,599616444438425318,-845,58,535
6.019066,1775665508.734930,599616444438425318,-839,57,534
6.024066,1775665508.734930,599616444438425318,-842,58,535
6.029066,1775665508.734930,599616444438425318,-841,56,533
6.034066,1775665508.734930,599616444438425318,-842,57,534
6.039066,1775665508.734930,599616444438425318,-841,56,534
6.044066,1775665508.734930,599616444438425318,-841,58,534
6.049066,1775665508.734930,599616444438425318,-841,59,534
6.054066,1775665508.734930,599616444438425318,-841,59,535
6.059066,1775665508.734930,599616444438425318,-843,59,534
6.064066,1775665508.734930,599616444438425318,-839,61,533
6.069066,1775665508.734930,599616444438425318,-840,60,535
6.074066,1775665508.734930,599616444438425318,-841,58,537
6.079066,1775665508.734930,599616444438425318,-842,58,537
6.084066,1775665508.734930,599616444438425318,-841,60,537
6.089066,1775665508.734930,599616444438425318,-840,58,538
6.094066,1775665508.734930,599616444438425318,-842,58,536
6.099066,1775665508.734930,599616444438425318,-841,56,538
6.104066,1775665508.734930,599616444438425318,-842,58,538
6.109066,1775665508.734930,599616444438425318,-843,59,538
6.114066,1775665508.734930,599616444438425318,-844,56,537
6.119066,1775665508.734930,599616444438425318,-844,55,538
6.124066,1775665508.734930,599616444438425318,-844,55,539
6.129066,1775665508.734930,599616444438425318,-843,53,537
6.134066,1775665508.734930,599616444438425318,-843,56,537
6.139066,1775665508.734930,599616444438425318,-842,58,537
6.144066,1775665508.734930,599616444438425318,-842,55,537
6.149066,1775665508.734930,599616444438425318,-844,57,535
6.154066,1775665508.734930,599616444438425318,-844,59,537
6.159066,1775665508.734930,599616444438425318,-843,58,534
6.164066,1775665508.734930,599616444438425318,-842,56,537
6.165185,1775665508.914789,599616444614544670,-842,53,533
6.170185,1775665508.914789,599616444614544670,-841,57,532
6.175185,1775665508.914789,599616444614544670,-845,50,535
6.180185,1775665508.914789,599616444614544670,-846,53,531
6.185185,1775665508.914789,599616444614544670,-846,55,534
6.190185,1775665508.914789,599616444614544670,-842,57,535
6.195185,1775665508.914789,599616444614544670,-843,59,536
6.200185,1775665508.914789,599616444614544670,-841,60,538
6.205185,1775665508.914789,599616444614544670,-838,57,537
6.210185,1775665508.914789,599616444614544670,-841,62,539
6.215185,1775665508.914789,599616444614544670,-842,57,534
6.220185,1775665508.914789,599616444614544670,-843,56,534
6.225185,1775665508.914789,599616444614544670,-842,57,535
6.230185,1775665508.914789,599616444614544670,-839,55,534
6.235185,1775665508.914789,599616444614544670,-838,55,534
6.240185,1775665508.914789,599616444614544670,-837,58,531
6.245185,1775665508.914789,599616444614544670,-838,59,533
6.250185,1775665508.914789,599616444614544670,-837,59,534
6.255185,1775665508.914789,599616444614544670,-839,59,538
6.260185,1775665508.914789,599616444614544670,-837,56,540
6.265185,1775665508.914789,599616444614544670,-842,58,539
6.270185,1775665508.914789,599616444614544670,-841,58,541
6.275185,1775665508.914789,599616444614544670,-844,57,538
6.280185,1775665508.914789,599616444614544670,-844,56,535
6.285185,1775665508.914789,599616444614544670,-844,57,532
6.290185,1775665508.914789,599616444614544670,-844,55,531
6.295185,1775665508.914789,599616444614544670,-844,60,530
6.300185,1775665508.914789,599616444614544670,-841,57,528
6.305185,1775665508.914789,599616444614544670,-839,55,530
6.310185,1775665508.914789,599616444614544670,-839,54,534
6.315185,1775665508.914789,599616444614544670,-837,53,533
6.320185,1775665508.914789,599616444614544670,-837,54,533
6.325185,1775665508.914789,599616444614544670,-834,58,538
6.330185,1775665508.914789,599616444614544670,-839,60,539
6.335185,1775665508.914789,599616444614544670,-839,60,539
6.340185,1775665508.914789,599616444614544670,-839,59,541
6.341335,1775665509.095250,599616444790694576,-840,59,541
6.346335,1775665509.095250,599616444790694576,-843,58,540
6.351335,1775665509.095250,599616444790694576,-846,55,543
6.356335,1775665509.095250,599616444790694576,-845,53,542
6.361335,1775665509.095250,599616444790694576,-847,56,541
6.366335,1775665509.095250,599616444790694576,-847,57,538
6.371335,1775665509.095250,599616444790694576,-847,58,538
6.376335,1775665509.095250,599616444790694576,-849,60,536
6.381335,1775665509.095250,599616444790694576,-848,59,535
6.386335,1775665509.095250,599616444790694576,-845,56,538
6.391335,1775665509.095250,599616444790694576,-846,59,535
6.396335,1775665509.095250,599616444790694576,-843,56,534
6.401335,1775665509.095250,599616444790694576,-842,60,533
6.406335,1775665509.095250,599616444790694576,-842,60,534
6.411335,1775665509.095250,599616444790694576,-839,60,531
6.416335,1775665509.095250,599616444790694576,-838,62,532
6.421335,1775665509.095250,599616444790694576,-838,58,532
6.426335,1775665509.095250,599616444790694576,-838,60,532
6.431335,1775665509.095250,599616444790694576,-837,56,534
6.436335,1775665509.095250,599616444790694576,-838,62,532
6.441335,1775665509.095250,599616444790694576,-837,58,533
6.446335,1775665509.095250,599616444790694576,-839,56,535
6.451335,1775665509.095250,599616444790694576,-836,55,537
6.456335,1775665509.095250,599616444790694576,-840,54,534
6.461335,1775665509.095250,599616444790694576,-839,56,535
6.466335,1775665509.095250,599616444790694576,-842,57,536
6.471335,1775665509.095250,599616444790694576,-842,58,534
6.476335,1775665509.095250,599616444790694576,-843,57,537
6.481335,1775665509.095250,599616444790694576,-842,57,537
6.486335,1775665509.095250,599616444790694576,-844,58,536
6.491335,1775665509.095250,599616444790694576,-841,56,537
6.496335,1775665509.095250,599616444790694576,-844,57,536
6.501335,1775665509.095250,599616444790694576,-844,57,537
6.506335,1775665509.095250,599616444790694576,-846,59,536
6.511335,1775665509.095250,599616444790694576,-845,59,535
6.516335,1775665509.095250,599616444790694576,-843,58,536
6.517485,1775665509.274924,599616444966844472,-845,59,539
6.522485,1775665509.274924,599616444966844472,-842,57,539
6.527485,1775665509.274924,599616444966844472,-844,62,537
6.532485,1775665509.274924,599616444966844472,-845,59,539
6.537485,1775665509.274924,599616444966844472,-845,54,539
6.542485,1775665509.274924,599616444966844472,-846,56,537
6.547485,1775665509.274924,599616444966844472,-847,56,535
6.552485,1775665509.274924,599616444966844472,-848,57,534
6.557485,1775665509.274924,599616444966844472,-844,52,534
6.562485,1775665509.274924,599616444966844472,-848,52,532
6.567485,1775665509.274924,599616444966844472,-844,52,533
6.572485,1775665509.274924,599616444966844472,-843,55,532
6.577485,1775665509.274924,599616444966844472,-840,54,534
6.582485,1775665509.274924,599616444966844472,-841,52,533
6.587485,1775665509.274924,599616444966844472,-841,53,530
6.592485,1775665509.274924,599616444966844472,-844,56,533
6.597485,1775665509.274924,599616444966844472,-841,55,532
6.602485,1775665509.274924,599616444966844472,-842,57,535
6.607485,1775665509.274924,599616444966844472,-842,60,533
6.612485,1775665509.274924,599616444966844472,-841,56,534
6.617485,1775665509.274924,599616444966844472,-841,55,537
6.622485,1775665509.274924,599616444966844472,-840,56,537
6.627485,1775665509.274924,599616444966844472,-841,58,536
6.632485,1775665509.274924,599616444966844472,-842,56,536
6.637485,1775665509.274924,599616444966844472,-843,54,535
6.642485,1775665509.274924,599616444966844472,-844,56,536
6.647485,1775665509.274924,599616444966844472,-844,55,532
6.652485,1775665509.274924,599616444966844472,-845,57,534
6.657485,1775665509.274924,599616444966844472,-843,59,538
6.662485,1775665509.274924,599616444966844472,-842,56,536
6.667485,1775665509.274924,599616444966844472,-843,56,536
6.672485,1775665509.274924,599616444966844472,-842,54,537
6.677485,1775665509.274924,599616444966844472,-845,56,537
6.682485,1775665509.274924,599616444966844472,-843,56,537
6.687485,1775665509.274924,599616444966844472,-845,56,536
6.692485,1775665509.274924,599616444966844472,-842,56,537
6.693604,1775665509.457852,599616445142963840,-847,55,535
6.698604,1775665509.457852,599616445142963840,-844,60,536
6.703604,1775665509.457852,599616445142963840,-845,59,536
6.708604,1775665509.457852,599616445142963840,-846,58,535
6.713604,1775665509.457852,599616445142963840,-844,54,536
6.718604,1775665509.457852,599616445142963840,-846,58,536
6.723604,1775665509.457852,599616445142963840,-844,55,536
6.728604,1775665509.457852,599616445142963840,-843,56,535
6.733604,1775665509.457852,599616445142963840,-842,58,533
6.738604,1775665509.457852,599616445142963840,-842,58,534
6.743604,1775665509.457852,599616445142963840,-842,58,535
6.748604,1775665509.457852,599616445142963840,-842,58,531
6.753604,1775665509.457852,599616445142963840,-842,58,532
6.758604,1775665509.457852,599616445142963840,-842,58,532
6.763604,1775665509.457852,599616445142963840,-842,58,533
6.768604,1775665509.457852,599616445142963840,-843,57,531
6.773604,1775665509.457852,599616445142963840,-841,57,532
6.778604,1775665509.457852,599616445142963840,-842,60,533
6.783604,1775665509.457852,599616445142963840,-842,57,532
6.788604,1775665509.457852,599616445142963840,-841,61,534
6.793604,1775665509.457852,599616445142963840,-842,61,534
6.798604,1775665509.457852,599616445142963840,-843,60,533
6.803604,1775665509.457852,599616445142963840,-841,60,533
6.808604,1775665509.457852,599616445142963840,-842,58,535
6.813604,1775665509.457852,599616445142963840,-842,57,536
6.818604,1775665509.457852,599616445142963840,-840,56,533
6.823604,1775665509.457852,599616445142963840,-842,58,535
6.828604,1775665509.457852,599616445142963840,-845,58,535
6.833604,1775665509.457852,599616445142963840,-842,58,535
6.838604,1775665509.457852,599616445142963840,-842,59,536
6.843604,1775665509.457852,599616445142963840,-844,59,537
6.848604,1775665509.457852,599616445142963840,-847,59,535
6.853604,1775665509.457852,599616445142963840,-843,61,536
6.858604,1775665509.457852,599616445142963840,-844,62,534
6.863604,1775665509.457852,599616445142963840,-845,59,532
6.868604,1775665509.457852,599616445142963840,-843,59,533
6.869785,1775665509.635242,599616445319144274,-848,58,539
6.874785,1775665509.635242,599616445319144274,-843,58,534
6.879785,1775665509.635242,599616445319144274,-844,56,536
6.884785,1775665509.635242,599616445319144274,-842,60,532
6.889785,1775665509.635242,599616445319144274,-842,60,534
6.894785,1775665509.635242,599616445319144274,-843,53,538
6.899785,1775665509.635242,599616445319144274,-842,54,538
6.904785,1775665509.635242,599616445319144274,-844,57,536
6.909785,1775665509.635242,599616445319144274,-842,58,531
6.914785,1775665509.635242,599616445319144274,-843,57,535
6.919785,1775665509.635242,599616445319144274,-844,60,533
6.924785,1775665509.635242,599616445319144274,-844,58,532
6.929785,1775665509.635242,599616445319144274,-845,59,534
6.934785,1775665509.635242,599616445319144274,-842,59,532
6.939785,1775665509.635242,599616445319144274,-843,57,534
6.944785,1775665509.635242,599616445319144274,-843,56,534
6.949785,1775665509.635242,599616445319144274,-844,58,534
6.954785,1775665509.635242,599616445319144274,-844,58,532
6.959785,1775665509.635242,599616445319144274,-841,58,534
6.964785,1775665509.635242,599616445319144274,-842,59,533
6.969785,1775665509.635242,599616445319144274,-843,59,535
6.974785,1775665509.635242,599616445319144274,-844,58,532
6.979785,1775665509.635242,599616445319144274,-844,61,532
6.984785,1775665509.635242,599616445319144274,-842,57,536
6.989785,1775665509.635242,599616445319144274,-842,57,534
6.994785,1775665509.635242,599616445319144274,-842,59,533
6.999785,1775665509.635242,599616445319144274,-844,56,535
7.004785,1775665509.635242,599616445319144274,-843,56,535
7.009785,1775665509.635242,599616445319144274,-843,61,535
7.014785,1775665509.635242,599616445319144274,-845,58,532
7.019785,1775665509.635242,599616445319144274,-842,60,533
7.024785,1775665509.635242,599616445319144274,-844,58,531
7.029785,1775665509.635242,599616445319144274,-843,56,532
7.034785,1775665509.635242,599616445319144274,-843,57,534
7.039785,1775665509.635242,599616445319144274,-845,57,531
7.044785,1775665509.635242,599616445319144274,-840,57,533
7.045904,1775665509.813959,599616445495263632,-839,56,536
7.050904,1775665509.813959,599616445495263632,-843,58,532
7.055904,1775665509.813959,599616445495263632,-840,61,533
7.060904,1775665509.813959,599616445495263632,-843,60,533
7.065904,1775665509.813959,599616445495263632,-840,58,534
7.070904,1775665509.813959,599616445495263632,-842,59,534
7.075904,1775665509.813959,599616445495263632,-841,55,535
7.080904,1775665509.813959,599616445495263632,-843,56,534
7.085904,1775665509.813959,599616445495263632,-844,60,536
7.090904,1775665509.813959,599616445495263632,-844,58,532
7.095904,1775665509.813959,599616445495263632,-844,58,535
7.100904,1775665509.813959,599616445495263632,-841,58,533
7.105904,1775665509.813959,599616445495263632,-842,57,533
7.110904,1775665509.813959,599616445495263632,-844,56,534
7.115904,1775665509.813959,599616445495263632,-844,58,535
7.120904,1775665509.813959,599616445495263632,-844,56,535
7.125904,1775665509.813959,599616445495263632,-844,54,538
7.130904,1775665509.813959,599616445495263632,-842,54,536
7.135904,1775665509.813959,599616445495263632,-842,57,535
7.140904,1775665509.813959,599616445495263632,-842,58,535
7.145904,1775665509.813959,599616445495263632,-844,61,534
7.150904,1775665509.813959,599616445495263632,-843,57,536
7.155904,1775665509.813959,599616445495263632,-842,61,533
7.160904,1775665509.813959,599616445495263632,-843,59,533
7.165904,1775665509.813959,599616445495263632,-841,57,533
7.170904,1775665509.813959,599616445495263632,-845,58,530
7.175904,1775665509.813959,599616445495263632,-843,57,531
7.180904,1775665509.813959,599616445495263632,-844,56,529
7.185904,1775665509.813959,599616445495263632,-846,54,530
7.190904,1775665509.813959,599616445495263632,-846,57,533
7.195904,1775665509.813959,599616445495263632,-846,56,532
7.200904,1775665509.813959,599616445495263632,-845,61,534
7.205904,1775665509.813959,599616445495263632,-843,59,535
7.210904,1775665509.813959,599616445495263632,-840,59,538
7.215904,1775665509.813959,599616445495263632,-840,58,536
7.220904,1775665509.813959,599616445495263632,-840,60,537
7.222054,1775665509.994890,599616445671413538,-843,57,535
7.227054,1775665509.994890,599616445671413538,-844,56,535
7.232054,1775665509.994890,599616445671413538,-845,57,533
7.237054,1775665509.994890,599616445671413538,-843,57,536
7.242054,1775665509.994890,599616445671413538,-840,57,532
7.247054,1775665509.994890,599616445671413538,-839,62,529
7.252054,1775665509.994890,599616445671413538,-842,58,534
7.257054,1775665509.994890,599616445671413538,-839,51,535
7.262054,1775665509.994890,599616445671413538,-840,57,538
7.267054,1775665509.994890,599616445671413538,-839,57,541
7.272054,1775665509.994890,599616445671413538,-842,56,539
7.277054,1775665509.994890,599616445671413538,-842,54,536
7.282054,1775665509.994890,599616445671413538,-843,54,534
7.287054,1775665509.994890,599616445671413538,-843,55,534
7.292054,1775665509.994890,599616445671413538,-844,58,530
7.297054,1775665509.994890,599616445671413538,-845,56,529
7.302054,1775665509.994890,599616445671413538,-842,58,527
7.307054,1775665509.994890,599616445671413538,-842,57,528
7.312054,1775665509.994890,599616445671413538,-841,59,527
7.317054,1775665509.994890,599616445671413538,-841,61,530
7.322054,1775665509.994890,599616445671413538,-839,59,533
7.327054,1775665509.994890,599616445671413538,-837,58,535
7.332054,1775665509.994890,599616445671413538,-840,62,536
7.337054,1775665509.994890,599616445671413538,-840,61,536
7.342054,1775665509.994890,599616445671413538,-842,59,536
7.347054,1775665509.994890,599616445671413538,-846,58,537
7.352054,1775665509.994890,599616445671413538,-847,59,538
7.357054,1775665509.994890,599616445671413538,-848,60,538
7.362054,1775665509.994890,599616445671413538,-850,56,538
7.367054,1775665509.994890,599616445671413538,-851,58,537
7.372054,1775665509.994890,599616445671413538,-848,54,539
7.377054,1775665509.994890,599616445671413538,-851,56,536
7.382054,1775665509.994890,599616445671413538,-852,55,536
7.387054,1775665509.994890,599616445671413538,-848,56,534
7.392054,1775665509.994890,599616445671413538,-853,57,536
7.397054,1775665509.994890,599616445671413538,-851,57,534
7.398265,1775665510.220236,599616445847624490,-850,59,533
7.403265,1775665510.220236,599616445847624490,-845,59,531
7.408265,1775665510.220236,599616445847624490,-845,59,535
7.413265,1775665510.220236,599616445847624490,-844,62,534
7.418265,1775665510.220236,599616445847624490,-842,58,533
7.423265,1775665510.220236,599616445847624490,-841,62,535
7.428265,1775665510.220236,599616445847624490,-842,60,533
7.433265,1775665510.220236,599616445847624490,-844,56,534
7.438265,1775665510.220236,599616445847624490,-842,58,536
7.443265,1775665510.220236,599616445847624490,-843,57,535
7.448265,1775665510.220236,599616445847624490,-845,55,534
7.453265,1775665510.220236,599616445847624490,-844,60,536
7.458265,1775665510.220236,599616445847624490,-846,58,535
7.463265,1775665510.220236,599616445847624490,-845,56,536
7.468265,1775665510.220236,599616445847624490,-846,55,533
7.473265,1775665510.220236,599616445847624490,-846,55,534
7.478265,1775665510.220236,599616445847624490,-846,55,534
7.483265,1775665510.220236,599616445847624490,-845,55,536
7.488265,1775665510.220236,599616445847624490,-844,53,535
7.493265,1775665510.220236,599616445847624490,-844,60,536
7.498265,1775665510.220236,599616445847624490,-843,60,536
7.503265,1775665510.220236,599616445847624490,-844,59,535
7.508265,1775665510.220236,599616445847624490,-842,59,535
7.513265,1775665510.220236,599616445847624490,-847,64,532
7.518265,1775665510.220236,599616445847624490,-841,61,537
7.523265,1775665510.220236,599616445847624490,-844,57,537
7.528265,1775665510.220236,599616445847624490,-843,59,541
7.533265,1775665510.220236,599616445847624490,-843,57,536
7.538265,1775665510.220236,599616445847624490,-843,60,539
7.543265,1775665510.220236,599616445847624490,-846,60,536
7.548265,1775665510.220236,599616445847624490,-850,57,538
7.553265,1775665510.220236,599616445847624490,-851,56,537
7.558265,1775665510.220236,599616445847624490,-852,56,536
7.563265,1775665510.220236,599616445847624490,-849,54,532
7.568265,1775665510.220236,599616445847624490,-847,53,532
7.573265,1775665510.220236,599616445847624490,-847,52,531
7.574415,1775665510.354951,599616446023774366,-845,53,536
7.579415,1775665510.354951,599616446023774366,-844,53,534
7.584415,1775665510.354951,599616446023774366,-842,55,531
7.589415,1775665510.354951,599616446023774366,-842,58,533
7.594415,1775665510.354951,599616446023774366,-844,55,534
7.599415,1775665510.354951,599616446023774366,-843,57,535
7.604415,1775665510.354951,599616446023774366,-842,57,533
7.609415,1775665510.354951,599616446023774366,-846,58,533
7.614415,1775665510.354951,599616446023774366,-844,57,536
7.619415,1775665510.354951,599616446023774366,-844,56,535
7.624415,1775665510.354951,599616446023774366,-843,56,534
7.629415,1775665510.354951,599616446023774366,-845,54,535
7.634415,1775665510.354951,599616446023774366,-843,58,534
7.639415,1775665510.354951,599616446023774366,-844,55,533
7.644415,1775665510.354951,599616446023774366,-845,56,534
7.649415,1775665510.354951,599616446023774366,-841,54,534
7.654415,1775665510.354951,599616446023774366,-844,58,536
7.659415,1775665510.354951,599616446023774366,-846,54,537
7.664415,1775665510.354951,599616446023774366,-847,54,537
7.669415,1775665510.354951,599616446023774366,-846,56,536
7.674415,1775665510.354951,599616446023774366,-843,56,536
7.679415,1775665510.354951,599616446023774366,-844,58,539
7.684415,1775665510.354951,599616446023774366,-845,58,538
7.689415,1775665510.354951,599616446023774366,-843,58,538
7.694415,1775665510.354951,599616446023774366,-844,58,538
7.699415,1775665510.354951,599616446023774366,-843,57,538
7.704415,1775665510.354951,599616446023774366,-845,57,538
7.709415,1775665510.354951,599616446023774366,-844,57,536
7.714415,1775665510.354951,599616446023774366,-844,60,535
7.719415,1775665510.354951,599616446023774366,-844,57,536
7.724415,1775665510.354951,599616446023774366,-842,56,535
7.729415,1775665510.354951,599616446023774366,-844,55,535
7.734415,1775665510.354951,599616446023774366,-841,56,534
7.739415,1775665510.354951,599616446023774366,-841,56,536
7.744415,1775665510.354951,599616446023774366,-842,55,535
7.749415,1775665510.354951,599616446023774366,-841,56,536
7.750595,1775665510.490925,599616446199954790,-840,55,538
7.755595,1775665510.490925,599616446199954790,-843,54,536
7.760595,1775665510.490925,599616446199954790,-845,54,535
7.765595,1775665510.490925,599616446199954790,-842,58,533
7.770595,1775665510.490925,599616446199954790,-843,59,534
7.775595,1775665510.490925,599616446199954790,-840,58,535
7.780595,1775665510.490925,599616446199954790,-842,56,534
7.785595,1775665510.490925,599616446199954790,-841,57,536
7.790595,1775665510.490925,599616446199954790,-840,61,536
7.795595,1775665510.490925,599616446199954790,-841,56,537
7.800595,1775665510.490925,599616446199954790,-839,56,537
7.805595,1775665510.490925,599616446199954790,-840,58,537
7.810595,1775665510.490925,599616446199954790,-840,60,539
7.815595,1775665510.490925,599616446199954790,-840,59,538
7.820595,1775665510.490925,599616446199954790,-841,57,535
7.825595,1775665510.490925,599616446199954790,-844,59,538
7.830595,1775665510.490925,599616446199954790,-842,58,537
7.835595,1775665510.490925,599616446199954790,-842,59,537
7.840595,1775665510.490925,599616446199954790,-839,55,538
7.845595,1775665510.490925,599616446199954790,-840,57,537
7.850595,1775665510.490925,599616446199954790,-840,56,538
7.855595,1775665510.490925,599616446199954790,-841,57,538
7.860595,1775665510.490925,599616446199954790,-843,58,538
7.865595,1775665510.490925,599616446199954790,-839,55,537
7.870595,1775665510.490925,599616446199954790,-840,56,538
7.875595,1775665510.490925,599616446199954790,-840,58,540
7.880595,1775665510.490925,599616446199954790,-840,58,541
7.885595,1775665510.490925,599616446199954790,-840,56,537
7.890595,1775665510.490925,599616446199954790,-840,54,537
7.895595,1775665510.490925,599616446199954790,-840,55,538
7.900595,1775665510.490925,599616446199954790,-841,56,538
7.905595,1775665510.490925,599616446199954790,-838,58,538
7.910595,1775665510.490925,599616446199954790,-839,58,539
7.915595,1775665510.490925,599616446199954790,-840,57,538
7.920595,1775665510.490925,599616446199954790,-841,58,539
7.925595,1775665510.490925,599616446199954790,-838,55,537
7.926806,1775665510.714948,599616446376165732,-838,54,541
7.931806,1775665510.714948,599616446376165732,-841,53,541
7.936806,1775665510.714948,599616446376165732,-838,57,539
7.941806,1775665510.714948,599616446376165732,-839,57,541
7.946806,1775665510.714948,599616446376165732,-838,60,541
7.951806,1775665510.714948,599616446376165732,-837,59,538
7.956806,1775665510.714948,599616446376165732,-838,58,540
7.961806,1775665510.714948,599616446376165732,-839,58,538
7.966806,1775665510.714948,599616446376165732,-837,59,538
7.971806,1775665510.714948,599616446376165732,-838,56,541
7.976806,1775665510.714948,599616446376165732,-839,56,542
7.981806,1775665510.714948,599616446376165732,-839,56,541
7.986806,1775665510.714948,599616446376165732,-838,56,539
7.991806,1775665510.714948,599616446376165732,-836,58,539
7.996806,1775665510.714948,599616446376165732,-835,56,539
8.001806,1775665510.714948,599616446376165732,-837,56,541
8.006806,1775665510.714948,599616446376165732,-837,58,538
8.011806,1775665510.714948,599616446376165732,-837,58,541
8.016806,1775665510.714948,599616446376165732,-838,55,541
8.021806,1775665510.714948,599616446376165732,-838,50,542
8.026806,1775665510.714948,599616446376165732,-839,51,542
8.031806,1775665510.714948,599616446376165732,-838,56,541
8.036806,1775665510.714948,599616446376165732,-837,56,540
8.041806,1775665510.714948,599616446376165732,-838,54,541
8.046806,1775665510.714948,599616446376165732,-835,59,538
8.051806,1775665510.714948,599616446376165732,-837,57,542
8.056806,1775665510.714948,599616446376165732,-838,57,542
8.061806,1775665510.714948,599616446376165732,-836,58,542
8.066806,1775665510.714948,599616446376165732,-838,59,543
8.071806,1775665510.714948,599616446376165732,-838,57,543
8.076806,1775665510.714948,599616446376165732,-837,56,542
8.081806,1775665510.714948,599616446376165732,-837,59,542
8.086806,1775665510.714948,599616446376165732,-837,55,543
8.091806,1775665510.714948,599616446376165732,-838,57,541
8.096806,1775665510.714948,599616446376165732,-834,57,540
8.101806,1775665510.714948,599616446376165732,-836,59,541
8.102987,1775665510.849840,599616446552346136,-834,53,544
8.107987,1775665510.849840,599616446552346136,-837,52,543
8.112987,1775665510.849840,599616446552346136,-836,54,544
8.117987,1775665510.849840,599616446552346136,-837,54,545
8.122987,1775665510.849840,599616446552346136,-837,53,543
8.127987,1775665510.849840,599616446552346136,-835,54,542
8.132987,1775665510.849840,599616446552346136,-836,56,544
8.137987,1775665510.849840,599616446552346136,-832,53,542
8.142987,1775665510.849840,599616446552346136,-833,55,542
8.147987,1775665510.849840,599616446552346136,-835,54,547
8.152987,1775665510.849840,599616446552346136,-836,51,546
8.157987,1775665510.849840,599616446552346136,-833,51,546
8.162987,1775665510.849840,599616446552346136,-834,57,547
8.167987,1775665510.849840,599616446552346136,-836,55,544
8.172987,1775665510.849840,599616446552346136,-837,57,544
8.177987,1775665510.849840,599616446552346136,-839,55,542
8.182987,1775665510.849840,599616446552346136,-837,56,543
8.187987,1775665510.849840,599616446552346136,-836,58,542
8.192987,1775665510.849840,599616446552346136,-840,57,541
8.197987,1775665510.849840,599616446552346136,-841,55,541
8.202987,1775665510.849840,599616446552346136,-841,57,540
8.207987,1775665510.849840,599616446552346136,-839,59,542
8.212987,1775665510.849840,599616446552346136,-836,55,542
8.217987,1775665510.849840,599616446552346136,-835,56,544
8.222987,1775665510.849840,599616446552346136,-834,55,541
8.227987,1775665510.849840,599616446552346136,-834,55,543
8.232987,1775665510.849840,599616446552346136,-829,52,542
8.237987,1775665510.849840,599616446552346136,-824,56,544
8.242987,1775665510.849840,599616446552346136,-822,52,546
8.247987,1775665510.849840,599616446552346136,-822,52,543
8.252987,1775665510.849840,599616446552346136,-820,52,545
8.257987,1775665510.849840,599616446552346136,-827,55,548
8.262987,1775665510.849840,599616446552346136,-828,53,548
8.267987,1775665510.849840,599616446552346136,-829,54,552
8.272987,1775665510.849840,599616446552346136,-827,57,553
8.277987,1775665510.849840,599616446552346136,-825,54,553
8.279106,1775665511.031237,599616446728465494,-825,52,548
8.284106,1775665511.031237,599616446728465494,-831,58,545
8.289106,1775665511.031237,599616446728465494,-837,51,548
8.294106,1775665511.031237,599616446728465494,-835,53,544
8.299106,1775665511.031237,599616446728465494,-837,54,542
8.304106,1775665511.031237,599616446728465494,-836,55,540
8.309106,1775665511.031237,599616446728465494,-833,55,539
8.314106,1775665511.031237,599616446728465494,-832,56,543
8.319106,1775665511.031237,599616446728465494,-830,55,546
8.324106,1775665511.031237,599616446728465494,-830,55,548
8.329106,1775665511.031237,599616446728465494,-829,53,550
8.334106,1775665511.031237,599616446728465494,-831,57,549
8.339106,1775665511.031237,599616446728465494,-831,57,550
8.344106,1775665511.031237,599616446728465494,-831,57,551
8.349106,1775665511.031237,599616446728465494,-831,57,549
8.354106,1775665511.031237,599616446728465494,-832,58,552
8.359106,1775665511.031237,599616446728465494,-832,57,552
8.364106,1775665511.031237,599616446728465494,-835,54,552
8.369106,1775665511.031237,599616446728465494,-833,55,547
8.374106,1775665511.031237,599616446728465494,-834,54,549
8.379106,1775665511.031237,599616446728465494,-832,51,549
8.384106,1775665511.031237,599616446728465494,-834,53,548
8.389106,1775665511.031237,599616446728465494,-831,52,548
8.394106,1775665511.031237,599616446728465494,-832,55,547
8.399106,1775665511.031237,599616446728465494,-830,52,544
8.404106,1775665511.031237,599616446728465494,-827,53,546
8.409106,1775665511.031237,599616446728465494,-826,58,546
8.414106,1775665511.031237,599616446728465494,-825,55,543
8.419106,1775665511.031237,599616446728465494,-820,58,544
8.424106,1775665511.031237,599616446728465494,-824,60,546
8.429106,1775665511.031237,599616446728465494,-820,56,546
8.434106,1775665511.031237,599616446728465494,-817,57,542
8.439106,1775665511.031237,599616446728465494,-820,57,544
8.444106,1775665511.031237,599616446728465494,-819,57,544
8.449106,1775665511.031237,599616446728465494,-821,56,546
8.454106,1775665511.031237,599616446728465494,-822,57,546
8.455317,1775665511.212862,599616446904676456,-823,52,547
8.460317,1775665511.212862,599616446904676456,-822,52,545
8.465317,1775665511.212862,599616446904676456,-826,51,547
8.470317,1775665511.212862,599616446904676456,-826,49,549
8.475317,1775665511.212862,599616446904676456,-827,51,549
8.480317,1775665511.212862,599616446904676456,-828,52,548
8.485317,1775665511.212862,599616446904676456,-828,53,546
8.490317,1775665511.212862,599616446904676456,-831,54,545
8.495317,1775665511.212862,599616446904676456,-830,57,543
8.500317,1775665511.212862,599616446904676456,-829,56,546
8.505317,1775665511.212862,599616446904676456,-831,56,543
8.510317,1775665511.212862,599616446904676456,-833,59,539
8.515317,1775665511.212862,599616446904676456,-834,56,541
8.520317,1775665511.212862,599616446904676456,-829,53,544
8.525317,1775665511.212862,599616446904676456,-826,53,551
8.530317,1775665511.212862,599616446904676456,-827,53,553
8.535317,1775665511.212862,599616446904676456,-827,56,553
8.540317,1775665511.212862,599616446904676456,-833,59,552
8.545317,1775665511.212862,599616446904676456,-834,53,551
8.550317,1775665511.212862,599616446904676456,-834,53,549
8.555317,1775665511.212862,599616446904676456,-839,52,546
8.560317,1775665511.212862,599616446904676456,-837,53,545
8.565317,1775665511.212862,599616446904676456,-837,49,541
8.570317,1775665511.212862,599616446904676456,-838,50,541
8.575317,1775665511.212862,599616446904676456,-835,52,539
8.580317,1775665511.212862,599616446904676456,-835,51,541
8.585317,1775665511.212862,599616446904676456,-830,52,540
8.590317,1775665511.212862,599616446904676456,-830,50,541
8.595317,1775665511.212862,599616446904676456,-831,54,543
8.600317,1775665511.212862,599616446904676456,-827,51,546
8.605317,1775665511.212862,599616446904676456,-831,54,546
8.610317,1775665511.212862,599616446904676456,-830,57,547
8.615317,1775665511.212862,599616446904676456,-830,55,547
8.620317,1775665511.212862,599616446904676456,-831,56,547
8.625317,1775665511.212862,599616446904676456,-830,55,545
8.630317,1775665511.212862,599616446904676456,-831,55,546
8.631558,1775665511.390947,599616447080917880,-833,55,546
8.636558,1775665511.390947,599616447080917880,-834,54,547
8.641558,1775665511.390947,599616447080917880,-835,54,549
8.646558,1775665511.390947,599616447080917880,-836,56,547
8.651558,1775665511.390947,599616447080917880,-834,46,550
8.656558,1775665511.390947,599616447080917880,-837,54,552
8.661558,1775665511.390947,599616447080917880,-837,51,547
8.666558,1775665511.390947,599616447080917880,-837,54,546
8.671558,1775665511.390947,599616447080917880,-835,56,546
8.676558,1775665511.390947,599616447080917880,-835,53,547
8.681558,1775665511.390947,599616447080917880,-834,54,545
8.686558,1775665511.390947,599616447080917880,-834,57,548
8.691558,1775665511.390947,599616447080917880,-834,57,543
8.696558,1775665511.390947,599616447080917880,-834,57,546
8.701558,1775665511.390947,599616447080917880,-836,56,545
8.706558,1775665511.390947,599616447080917880,-837,54,547
8.711558,1775665511.390947,599616447080917880,-836,57,544
8.716558,1775665511.390947,599616447080917880,-834,58,543
8.721558,1775665511.390947,599616447080917880,-835,59,543
8.726558,1775665511.390947,599616447080917880,-835,55,542
8.731558,1775665511.390947,599616447080917880,-835,55,541
8.736558,1775665511.390947,599616447080917880,-837,54,543
8.741558,1775665511.390947,599616447080917880,-834,52,541
8.746558,1775665511.390947,599616447080917880,-834,54,541
8.751558,1775665511.390947,599616447080917880,-835,54,540
8.756558,1775665511.390947,599616447080917880,-835,52,543
8.761558,1775665511.390947,599616447080917880,-835,53,542
8.766558,1775665511.390947,599616447080917880,-836,54,544
8.771558,1775665511.390947,599616447080917880,-834,57,543
8.776558,1775665511.390947,599616447080917880,-833,56,543
8.781558,1775665511.390947,599616447080917880,-831,58,543
8.786558,1775665511.390947,599616447080917880,-835,56,542
8.791558,1775665511.390947,599616447080917880,-835,59,541
8.796558,1775665511.390947,599616447080917880,-835,57,542
8.801558,1775665511.390947,599616447080917880,-834,57,543
8.806558,1775665511.390947,599616447080917880,-836,59,543
8.807800,1775665511.571201,599616447257159330,-834,54,544
8.812800,1775665511.571201,599616447257159330,-837,56,545
8.817800,1775665511.571201,599616447257159330,-836,55,541
8.822800,1775665511.571201,599616447257159330,-837,61,545
8.827800,1775665511.571201,599616447257159330,-836,53,542
8.832800,1775665511.571201,599616447257159330,-837,54,546
8.837800,1775665511.571201,599616447257159330,-839,55,542
8.842800,1775665511.571201,599616447257159330,-839,55,541
8.847800,1775665511.571201,599616447257159330,-837,53,541
8.852800,1775665511.571201,599616447257159330,-838,56,541
8.857800,1775665511.571201,599616447257159330,-839,59,542
8.862800,1775665511.571201,599616447257159330,-839,56,541
8.867800,1775665511.571201,599616447257159330,-839,60,541
8.872800,1775665511.571201,599616447257159330,-838,56,545
8.877800,1775665511.571201,599616447257159330,-837,59,541
8.882800,1775665511.571201,599616447257159330,-837,57,540
8.887800,1775665511.571201,599616447257159330,-839,59,541
8.892800,1775665511.571201,599616447257159330,-839,56,540
8.897800,1775665511.571201,599616447257159330,-840,58,539
8.902800,1775665511.571201,599616447257159330,-839,54,540
8.907800,1775665511.571201,599616447257159330,-840,60,539
8.912800,1775665511.571201,599616447257159330,-837,56,539
8.917800,1775665511.571201,599616447257159330,-842,57,541
8.922800,1775665511.571201,599616447257159330,-839,56,540
8.927800,1775665511.571201,599616447257159330,-840,61,540
8.932800,1775665511.571201,599616447257159330,-840,57,540
8.937800,1775665511.571201,599616447257159330,-838,56,540
8.942800,1775665511.571201,599616447257159330,-836,59,538
8.947800,1775665511.571201,599616447257159330,-839,58,541
8.952800,1775665511.571201,599616447257159330,-840,60,538
8.957800,1775665511.571201,599616447257159330,-839,57,540
8.962800,1775665511.571201,599616447257159330,-838,59,540
8.967800,1775665511.571201,599616447257159330,-839,58,539
8.972800,1775665511.571201,599616447257159330,-836,56,537
8.977800,1775665511.571201,599616447257159330,-839,58,538
8.982800,1775665511.571201,599616447257159330,-839,57,536
8.984011,1775665511.750802,599616447433370288,-836,51,542
8.989011,1775665511.750802,599616447433370288,-840,57,537
8.994011,1775665511.750802,599616447433370288,-840,59,536
8.999011,1775665511.750802,599616447433370288,-839,57,537
9.004011,1775665511.750802,599616447433370288,-837,59,536
9.009011,1775665511.750802,599616447433370288,-838,52,539
9.014011,1775665511.750802,599616447433370288,-840,55,538
9.019011,1775665511.750802,599616447433370288,-837,57,539
9.024011,1775665511.750802,599616447433370288,-840,56,538
9.029011,1775665511.750802,599616447433370288,-838,60,539
9.034011,1775665511.750802,599616447433370288,-839,58,539
9.039011,1775665511.750802,599616447433370288,-839,62,537
9.044011,1775665511.750802,599616447433370288,-839,59,537
9.049011,1775665511.750802,599616447433370288,-840,59,539
9.054011,1775665511.750802,599616447433370288,-841,59,538
9.059011,1775665511.750802,599616447433370288,-839,57,538
9.064011,1775665511.750802,599616447433370288,-838,58,539
9.069011,1775665511.750802,599616447433370288,-839,59,538
9.074011,1775665511.750802,599616447433370288,-839,56,542
9.079011,1775665511.750802,599616447433370288,-841,58,541
9.084011,1775665511.750802,599616447433370288,-841,56,538
9.089011,1775665511.750802,599616447433370288,-840,58,539
9.094011,1775665511.750802,599616447433370288,-840,55,539
9.099011,1775665511.750802,599616447433370288,-841,54,540
9.104011,1775665511.750802,599616447433370288,-840,57,540
9.109011,1775665511.750802,599616447433370288,-843,60,538
9.114011,1775665511.750802,599616447433370288,-841,57,537
9.119011,1775665511.750802,599616447433370288,-840,56,539
9.124011,1775665511.750802,599616447433370288,-843,56,538
9.129011,1775665511.750802,599616447433370288,-843,56,537
9.134011,1775665511.750802,599616447433370288,-843,55,535
9.139011,1775665511.750802,599616447433370288,-842,54,539
9.144011,1775665511.750802,599616447433370288,-843,53,536
9.149011,1775665511.750802,599616447433370288,-843,48,539
9.154011,1775665511.750802,599616447433370288,-844,55,535
9.159011,1775665511.750802,599616447433370288,-841,54,537
9.160130,1775665511.931221,599616447609489636,-844,56,536
9.165130,1775665511.931221,599616447609489636,-841,59,542
9.170130,1775665511.931221,599616447609489636,-841,55,539
9.175130,1775665511.931221,599616447609489636,-841,54,541
9.180130,1775665511.931221,599616447609489636,-841,58,538
9.185130,1775665511.931221,599616447609489636,-839,57,537
9.190130,1775665511.931221,599616447609489636,-839,53,540
9.195130,1775665511.931221,599616447609489636,-838,52,539
9.200130,1775665511.931221,599616447609489636,-835,55,541
9.205130,1775665511.931221,599616447609489636,-834,56,543
9.210130,1775665511.931221,599616447609489636,-834,56,539
9.215130,1775665511.931221,599616447609489636,-839,56,538
9.220130,1775665511.931221,599616447609489636,-838,57,540
9.225130,1775665511.931221,599616447609489636,-840,57,543
9.230130,1775665511.931221,599616447609489636,-840,60,538
9.235130,1775665511.931221,599616447609489636,-838,57,541
9.240130,1775665511.931221,599616447609489636,-839,60,540
9.245130,1775665511.931221,599616447609489636,-840,58,539
9.250130,1775665511.931221,599616447609489636,-841,58,536
9.255130,1775665511.931221,599616447609489636,-839,59,534
9.260130,1775665511.931221,599616447609489636,-839,55,534
9.265130,1775665511.931221,599616447609489636,-840,54,532
9.270130,1775665511.931221,599616447609489636,-840,56,531
9.275130,1775665511.931221,599616447609489636,-837,55,531
9.280130,1775665511.931221,599616447609489636,-835,56,532
9.285130,1775665511.931221,599616447609489636,-834,56,531
9.290130,1775665511.931221,599616447609489636,-835,57,537
9.295130,1775665511.931221,599616447609489636,-838,56,539
9.300130,1775665511.931221,599616447609489636,-836,59,541
9.305130,1775665511.931221,599616447609489636,-839,59,542
9.310130,1775665511.931221,599616447609489636,-841,58,541
9.315130,1775665511.931221,599616447609489636,-841,56,541
9.320130,1775665511.931221,599616447609489636,-842,58,541
9.325130,1775665511.931221,599616447609489636,-845,57,540
9.330130,1775665511.931221,599616447609489636,-844,59,538
9.335130,1775665511.931221,599616447609489636,-847,58,540
9.336311,1775665512.110874,599616447785670070,-844,56,539
9.341311,1775665512.110874,599616447785670070,-847,56,537
9.346311,1775665512.110874,599616447785670070,-847,55,537
9.351311,1775665512.110874,599616447785670070,-846,56,537
9.356311,1775665512.110874,599616447785670070,-845,58,536
9.361311,1775665512.110874,599616447785670070,-846,58,536
9.366311,1775665512.110874,599616447785670070,-842,57,537
9.371311,1775665512.110874,599616447785670070,-841,57,538
9.376311,1775665512.110874,599616447785670070,-842,58,532
9.381311,1775665512.110874,599616447785670070,-841,60,533
9.386311,1775665512.110874,599616447785670070,-838,60,537
9.391311,1775665512.110874,599616447785670070,-836,60,532
9.396311,1775665512.110874,599616447785670070,-837,59,534
9.401311,1775665512.110874,599616447785670070,-835,60,534
9.406311,1775665512.110874,599616447785670070,-834,57,533
9.411311,1775665512.110874,599616447785670070,-837,54,534
9.416311,1775665512.110874,599616447785670070,-840,56,534
9.421311,1775665512.110874,599616447785670070,-839,55,537
9.426311,1775665512.110874,599616447785670070,-837,56,537
9.431311,1775665512.110874,599616447785670070,-840,56,536
9.436311,1775665512.110874,599616447785670070,-840,58,534
9.441311,1775665512.110874,599616447785670070,-841,56,536
9.446311,1775665512.110874,599616447785670070,-844,57,537
9.451311,1775665512.110874,599616447785670070,-843,55,536
9.456311,1775665512.110874,599616447785670070,-841,57,536
9.461311,1775665512.110874,599616447785670070,-841,57,538
9.466311,1775665512.110874,599616447785670070,-843,56,537
9.471311,1775665512.110874,599616447785670070,-841,58,536
9.476311,1775665512.110874,599616447785670070,-842,59,536
9.481311,1775665512.110874,599616447785670070,-843,61,536
9.486311,1775665512.110874,599616447785670070,-841,56,536
9.491311,1775665512.110874,599616447785670070,-842,56,541
9.496311,1775665512.110874,599616447785670070,-843,57,539
9.501311,1775665512.110874,599616447785670070,-843,61,539
9.506311,1775665512.110874,599616447785670070,-843,59,539
9.511311,1775665512.110874,599616447785670070,-844,59,540
9.512460,1775665512.289812,599616447961819956,-843,54,542
9.517460,1775665512.289812,599616447961819956,-846,55,537
9.522460,1775665512.289812,599616447961819956,-847,55,534
9.527460,1775665512.289812,599616447961819956,-848,56,532
9.532460,1775665512.289812,599616447961819956,-847,56,532
9.537460,1775665512.289812,599616447961819956,-844,52,531
9.542460,1775665512.289812,599616447961819956,-842,53,534
9.547460,1775665512.289812,599616447961819956,-843,53,535
9.552460,1775665512.289812,599616447961819956,-836,49,538
9.557460,1775665512.289812,599616447961819956,-842,52,537
9.562460,1775665512.289812,599616447961819956,-841,55,534
9.567460,1775665512.289812,599616447961819956,-840,57,534
9.572460,1775665512.289812,599616447961819956,-842,56,535
9.577460,1775665512.289812,599616447961819956,-841,58,536
9.582460,1775665512.289812,599616447961819956,-840,56,535
9.587460,1775665512.289812,599616447961819956,-842,58,536
9.592460,1775665512.289812,599616447961819956,-843,57,534
9.597460,1775665512.289812,599616447961819956,-843,57,536
9.602460,1775665512.289812,599616447961819956,-844,56,536
9.607460,1775665512.289812,599616447961819956,-844,58,536
9.612460,1775665512.289812,599616447961819956,-843,58,537
9.617460,1775665512.289812,599616447961819956,-844,59,534
9.622460,1775665512.289812,599616447961819956,-844,56,535
9.627460,1775665512.289812,599616447961819956,-842,57,533
9.632460,1775665512.289812,599616447961819956,-843,57,533
9.637460,1775665512.289812,599616447961819956,-844,59,535
9.642460,1775665512.289812,599616447961819956,-841,56,535
9.647460,1775665512.289812,599616447961819956,-844,54,537
9.652460,1775665512.289812,599616447961819956,-843,54,539
9.657460,1775665512.289812,599616447961819956,-842,59,535
9.662460,1775665512.289812,599616447961819956,-842,57,534
9.667460,1775665512.289812,599616447961819956,-844,60,535
9.672460,1775665512.289812,599616447961819956,-845,59,536
9.677460,1775665512.289812,599616447961819956,-844,58,537
9.682460,1775665512.289812,599616447961819956,-845,61,537
9.687460,1775665512.289812,599616447961819956,-845,55,537
9.688610,1775665512.471232,599616448137969852,-845,55,537
9.693610,1775665512.471232,599616448137969852,-844,56,534
9.698610,1775665512.471232,599616448137969852,-842,58,535
9.703610,1775665512.471232,599616448137969852,-843,56,535
9.708610,1775665512.471232,599616448137969852,-844,57,534
9.713610,1775665512.471232,599616448137969852,-843,57,533
9.718610,1775665512.471232,599616448137969852,-841,57,532
9.723610,1775665512.471232,599616448137969852,-845,58,534
9.728610,1775665512.471232,599616448137969852,-844,52,536
9.733610,1775665512.471232,599616448137969852,-841,51,534
9.738610,1775665512.471232,599616448137969852,-839,57,536
9.743610,1775665512.471232,599616448137969852,-843,55,533
9.748610,1775665512.471232,599616448137969852,-842,58,535
9.753610,1775665512.471232,599616448137969852,-843,57,532
9.758610,1775665512.471232,599616448137969852,-843,58,533
9.763610,1775665512.471232,599616448137969852,-843,60,534
9.768610,1775665512.471232,599616448137969852,-844,57,535
9.773610,1775665512.471232,599616448137969852,-843,57,535
9.778610,1775665512.471232,599616448137969852,-844,59,534
9.783610,1775665512.471232,599616448137969852,-842,59,534
9.788610,1775665512.471232,599616448137969852,-842,58,532
9.793610,1775665512.471232,599616448137969852,-843,58,531
9.798610,1775665512.471232,599616448137969852,-840,58,533
9.803610,1775665512.471232,599616448137969852,-844,58,535
9.808610,1775665512.471232,599616448137969852,-843,59,534
9.813610,1775665512.471232,599616448137969852,-844,58,532
9.818610,1775665512.471232,599616448137969852,-844,55,534
9.823610,1775665512.471232,599616448137969852,-844,58,533
9.828610,1775665512.471232,599616448137969852,-844,59,532
9.833610,1775665512.471232,599616448137969852,-844,56,533
9.838610,1775665512.471232,599616448137969852,-842,57,532
9.843610,1775665512.471232,599616448137969852,-842,59,534
9.848610,1775665512.471232,599616448137969852,-842,60,536
9.853610,1775665512.471232,599616448137969852,-843,57,534
9.858610,1775665512.471232,599616448137969852,-842,59,533
9.863610,1775665512.471232,599616448137969852,-843,57,534
