time,t_wall,t_device_ns,x,y,z
0.000000,1776081468.308404,599616561120366666,-435,-591,-715
0.005000,1776081468.308404,599616561120366666,-440,-588,-718
0.010000,1776081468.308404,599616561120366666,-445,-589,-717
0.015000,1776081468.308404,599616561120366666,-458,-587,-716
0.020000,1776081468.308404,599616561120366666,-462,-584,-717
0.025000,1776081468.308404,599616561120366666,-462,-582,-719
0.030000,1776081468.308404,599616561120366666,-466,-582,-716
0.035000,1776081468.308404,599616561120366666,-462,-581,-719
0.040000,1776081468.308404,599616561120366666,-458,-589,-716
0.045000,1776081468.308404,599616561120366666,-454,-592,-713
0.050000,1776081468.308404,599616561120366666,-451,-601,-711
0.055000,1776081468.308404,599616561120366666,-442,-604,-710
0.060000,1776081468.308404,599616561120366666,-438,-604,-706
0.065000,1776081468.308404,599616561120366666,-437,-606,-709
0.070000,1776081468.308404,599616561120366666,-433,-607,-710
0.075000,1776081468.308404,599616561120366666,-437,-609,-711
0.080000,1776081468.308404,599616561120366666,-432,-607,-710
0.085000,1776081468.308404,599616561120366666,-432,-606,-713
0.090000,1776081468.308404,599616561120366666,-436,-607,-713
0.095000,1776081468.308404,599616561120366666,-437,-607,-713
0.100000,1776081468.308404,599616561120366666,-440,-605,-711
0.105000,1776081468.308404,599616561120366666,-441,-604,-711
0.110000,1776081468.308404,599616561120366666,-441,-603,-717
0.115000,1776081468.308404,599616561120366666,-440,-595,-716
0.120000,1776081468.308404,599616561120366666,-440,-590,-717
0.125000,1776081468.308404,599616561120366666,-443,-586,-714
0.130000,1776081468.308404,599616561120366666,-450,-585,-716
0.135000,1776081468.308404,599616561120366666,-451,-586,-713
0.140000,1776081468.308404,599616561120366666,-451,-590,-716
0.145000,1776081468.308404,599616561120366666,-455,-592,-712
0.150000,1776081468.308404,599616561120366666,-444,-598,-712
0.155000,1776081468.308404,599616561120366666,-441,-600,-710
0.160000,1776081468.308404,599616561120366666,-437,-599,-714
0.165000,1776081468.308404,599616561120366666,-437,-594,-714
0.170000,1776081468.308404,599616561120366666,-436,-591,-710
0.175000,1776081468.308404,599616561120366666,-432,-588,-697
0.176089,1776081468.533966,599616561296455536,-434,-601,-707
0.181089,1776081468.533966,599616561296455536,-446,-610,-725
0.186089,1776081468.533966,599616561296455536,-457,-602,-716
0.191089,1776081468.533966,599616561296455536,-448,-588,-711
0.196089,1776081468.533966,599616561296455536,-458,-597,-728
0.201089,1776081468.533966,599616561296455536,-455,-603,-715
0.206089,1776081468.533966,599616561296455536,-439,-599,-709
0.211089,1776081468.533966,599616561296455536,-430,-592,-701
0.216089,1776081468.533966,599616561296455536,-435,-598,-713
0.221089,1776081468.533966,599616561296455536,-433,-604,-719
0.226089,1776081468.533966,599616561296455536,-428,-609,-718
0.231089,1776081468.533966,599616561296455536,-438,-605,-726
0.236089,1776081468.533966,599616561296455536,-437,-603,-722
0.241089,1776081468.533966,599616561296455536,-442,-597,-725
0.246089,1776081468.533966,599616561296455536,-446,-591,-717
0.251089,1776081468.533966,599616561296455536,-448,-592,-714
0.256089,1776081468.533966,599616561296455536,-456,-590,-711
0.261089,1776081468.533966,599616561296455536,-463,-590,-710
0.266089,1776081468.533966,599616561296455536,-462,-599,-710
0.271089,1776081468.533966,599616561296455536,-456,-595,-715
0.276089,1776081468.533966,599616561296455536,-452,-594,-714
0.281089,1776081468.533966,599616561296455536,-447,-593,-716
0.286089,1776081468.533966,599616561296455536,-443,-592,-719
0.291089,1776081468.533966,599616561296455536,-438,-594,-718
0.296089,1776081468.533966,599616561296455536,-438,-593,-718
0.301089,1776081468.533966,599616561296455536,-437,-594,-715
0.306089,1776081468.533966,599616561296455536,-434,-596,-715
0.311089,1776081468.533966,599616561296455536,-435,-599,-713
0.316089,1776081468.533966,599616561296455536,-437,-602,-713
0.321089,1776081468.533966,599616561296455536,-439,-598,-714
0.326089,1776081468.533966,599616561296455536,-437,-597,-716
0.331089,1776081468.533966,599616561296455536,-437,-598,-717
0.336089,1776081468.533966,599616561296455536,-442,-589,-714
0.341089,1776081468.533966,599616561296455536,-440,-591,-715
0.346089,1776081468.533966,599616561296455536,-438,-595,-716
0.351089,1776081468.533966,599616561296455536,-436,-596,-716
0.352269,1776081468.667003,599616561472635944,-441,-601,-714
0.357269,1776081468.667003,599616561472635944,-439,-600,-712
0.362269,1776081468.667003,599616561472635944,-435,-601,-713
0.367269,1776081468.667003,599616561472635944,-431,-604,-716
0.372269,1776081468.667003,599616561472635944,-427,-605,-704
0.377269,1776081468.667003,599616561472635944,-440,-590,-693
0.382269,1776081468.667003,599616561472635944,-463,-599,-737
0.387269,1776081468.667003,599616561472635944,-454,-600,-729
0.392269,1776081468.667003,599616561472635944,-447,-587,-714
0.397269,1776081468.667003,599616561472635944,-457,-582,-715
0.402269,1776081468.667003,599616561472635944,-448,-598,-711
0.407269,1776081468.667003,599616561472635944,-452,-602,-717
0.412269,1776081468.667003,599616561472635944,-451,-596,-718
0.417269,1776081468.667003,599616561472635944,-447,-587,-718
0.422269,1776081468.667003,599616561472635944,-446,-578,-720
0.427269,1776081468.667003,599616561472635944,-441,-580,-714
0.432269,1776081468.667003,599616561472635944,-443,-581,-711
0.437269,1776081468.667003,599616561472635944,-439,-592,-712
0.442269,1776081468.667003,599616561472635944,-439,-601,-711
0.447269,1776081468.667003,599616561472635944,-434,-604,-707
0.452269,1776081468.667003,599616561472635944,-436,-607,-706
0.457269,1776081468.667003,599616561472635944,-434,-607,-706
0.462269,1776081468.667003,599616561472635944,-440,-605,-712
0.467269,1776081468.667003,599616561472635944,-438,-605,-713
0.472269,1776081468.667003,599616561472635944,-438,-601,-717
0.477269,1776081468.667003,599616561472635944,-434,-595,-716
0.482269,1776081468.667003,599616561472635944,-436,-594,-719
0.487269,1776081468.667003,599616561472635944,-442,-592,-718
0.492269,1776081468.667003,599616561472635944,-441,-592,-716
0.497269,1776081468.667003,599616561472635944,-445,-595,-715
0.502269,1776081468.667003,599616561472635944,-456,-596,-717
0.507269,1776081468.667003,599616561472635944,-457,-597,-719
0.512269,1776081468.667003,599616561472635944,-454,-598,-714
0.517269,1776081468.667003,599616561472635944,-450,-596,-715
0.522269,1776081468.667003,599616561472635944,-445,-592,-717
0.527269,1776081468.667003,599616561472635944,-437,-592,-715
0.528450,1776081468.850649,599616561648816358,-435,-587,-712
0.533450,1776081468.850649,599616561648816358,-436,-592,-717
0.538450,1776081468.850649,599616561648816358,-433,-593,-715
0.543450,1776081468.850649,599616561648816358,-434,-598,-715
0.548450,1776081468.850649,599616561648816358,-428,-595,-716
0.553450,1776081468.850649,599616561648816358,-432,-594,-719
0.558450,1776081468.850649,599616561648816358,-434,-594,-720
0.563450,1776081468.850649,599616561648816358,-438,-593,-715
0.568450,1776081468.850649,599616561648816358,-440,-590,-713
0.573450,1776081468.850649,599616561648816358,-444,-593,-714
0.578450,1776081468.850649,599616561648816358,-442,-599,-714
0.583450,1776081468.850649,599616561648816358,-448,-604,-717
0.588450,1776081468.850649,599616561648816358,-443,-601,-715
0.593450,1776081468.850649,599616561648816358,-441,-599,-715
0.598450,1776081468.850649,599616561648816358,-439,-597,-716
0.603450,1776081468.850649,599616561648816358,-437,-599,-714
0.608450,1776081468.850649,599616561648816358,-433,-595,-717
0.613450,1776081468.850649,599616561648816358,-434,-594,-717
0.618450,1776081468.850649,599616561648816358,-434,-591,-716
0.623450,1776081468.850649,599616561648816358,-436,-595,-716
0.628450,1776081468.850649,599616561648816358,-439,-595,-718
0.633450,1776081468.850649,599616561648816358,-434,-594,-718
0.638450,1776081468.850649,599616561648816358,-438,-597,-717
0.643450,1776081468.850649,599616561648816358,-438,-593,-718
0.648450,1776081468.850649,599616561648816358,-434,-591,-719
0.653450,1776081468.850649,599616561648816358,-433,-593,-718
0.658450,1776081468.850649,599616561648816358,-430,-592,-717
0.663450,1776081468.850649,599616561648816358,-431,-598,-718
0.668450,1776081468.850649,599616561648816358,-436,-600,-716
0.673450,1776081468.850649,599616561648816358,-436,-602,-718
0.678450,1776081468.850649,599616561648816358,-438,-602,-718
0.683450,1776081468.850649,599616561648816358,-444,-597,-716
0.688450,1776081468.850649,599616561648816358,-449,-593,-713
0.693450,1776081468.850649,599616561648816358,-447,-593,-714
0.698450,1776081468.850649,599616561648816358,-446,-592,-718
0.703450,1776081468.850649,599616561648816358,-441,-595,-720
0.704600,1776081469.027409,599616561824966244,-432,-596,-721
0.709600,1776081469.027409,599616561824966244,-428,-597,-716
0.714600,1776081469.027409,599616561824966244,-428,-597,-715
0.719600,1776081469.027409,599616561824966244,-428,-604,-712
0.724600,1776081469.027409,599616561824966244,-429,-598,-710
0.729600,1776081469.027409,599616561824966244,-429,-599,-715
0.734600,1776081469.027409,599616561824966244,-431,-595,-713
0.739600,1776081469.027409,599616561824966244,-430,-594,-715
0.744600,1776081469.027409,599616561824966244,-437,-595,-714
0.749600,1776081469.027409,599616561824966244,-441,-594,-715
0.754600,1776081469.027409,599616561824966244,-442,-599,-715
0.759600,1776081469.027409,599616561824966244,-442,-599,-715
0.764600,1776081469.027409,599616561824966244,-441,-604,-718
0.769600,1776081469.027409,599616561824966244,-437,-599,-717
0.774600,1776081469.027409,599616561824966244,-434,-598,-705
0.779600,1776081469.027409,599616561824966244,-426,-595,-714
0.784600,1776081469.027409,599616561824966244,-431,-603,-727
0.789600,1776081469.027409,599616561824966244,-436,-592,-725
0.794600,1776081469.027409,599616561824966244,-430,-573,-728
0.799600,1776081469.027409,599616561824966244,-437,-572,-734
0.804600,1776081469.027409,599616561824966244,-436,-581,-721
0.809600,1776081469.027409,599616561824966244,-442,-584,-724
0.814600,1776081469.027409,599616561824966244,-432,-586,-707
0.819600,1776081469.027409,599616561824966244,-433,-590,-714
0.824600,1776081469.027409,599616561824966244,-450,-598,-730
0.829600,1776081469.027409,599616561824966244,-435,-598,-729
0.834600,1776081469.027409,599616561824966244,-428,-600,-736
0.839600,1776081469.027409,599616561824966244,-424,-600,-724
0.844600,1776081469.027409,599616561824966244,-427,-599,-723
0.849600,1776081469.027409,599616561824966244,-433,-596,-721
0.854600,1776081469.027409,599616561824966244,-433,-599,-716
0.859600,1776081469.027409,599616561824966244,-434,-601,-713
0.864600,1776081469.027409,599616561824966244,-440,-606,-711
0.869600,1776081469.027409,599616561824966244,-443,-604,-716
0.874600,1776081469.027409,599616561824966244,-445,-599,-716
0.879600,1776081469.027409,599616561824966244,-441,-599,-722
0.880719,1776081469.208631,599616562001085612,-445,-586,-723
0.885719,1776081469.208631,599616562001085612,-445,-585,-723
0.890719,1776081469.208631,599616562001085612,-441,-582,-723
0.895719,1776081469.208631,599616562001085612,-437,-584,-722
0.900719,1776081469.208631,599616562001085612,-432,-588,-720
0.905719,1776081469.208631,599616562001085612,-426,-591,-720
0.910719,1776081469.208631,599616562001085612,-427,-594,-720
0.915719,1776081469.208631,599616562001085612,-427,-596,-719
0.920719,1776081469.208631,599616562001085612,-428,-590,-720
0.925719,1776081469.208631,599616562001085612,-430,-591,-721
0.930719,1776081469.208631,599616562001085612,-427,-593,-721
0.935719,1776081469.208631,599616562001085612,-425,-596,-719
0.940719,1776081469.208631,599616562001085612,-424,-597,-717
0.945719,1776081469.208631,599616562001085612,-425,-598,-718
0.950719,1776081469.208631,599616562001085612,-430,-599,-716
0.955719,1776081469.208631,599616562001085612,-430,-600,-717
0.960719,1776081469.208631,599616562001085612,-431,-599,-720
0.965719,1776081469.208631,599616562001085612,-427,-597,-719
0.970719,1776081469.208631,599616562001085612,-429,-595,-720
0.975719,1776081469.208631,599616562001085612,-429,-597,-721
0.980719,1776081469.208631,599616562001085612,-458,-584,-712
0.985719,1776081469.208631,599616562001085612,-467,-590,-746
0.990719,1776081469.208631,599616562001085612,-449,-586,-735
0.995719,1776081469.208631,599616562001085612,-446,-581,-725
1.000719,1776081469.208631,599616562001085612,-437,-583,-722
1.005719,1776081469.208631,599616562001085612,-428,-592,-714
1.010719,1776081469.208631,599616562001085612,-427,-598,-720
1.015719,1776081469.208631,599616562001085612,-423,-594,-717
1.020719,1776081469.208631,599616562001085612,-424,-596,-715
1.025719,1776081469.208631,599616562001085612,-427,-589,-716
1.030719,1776081469.208631,599616562001085612,-432,-589,-719
1.035719,1776081469.208631,599616562001085612,-439,-593,-716
1.040719,1776081469.208631,599616562001085612,-447,-594,-716
1.045719,1776081469.208631,599616562001085612,-444,-592,-715
1.050719,1776081469.208631,599616562001085612,-442,-594,-714
1.055719,1776081469.208631,599616562001085612,-440,-595,-710
1.056930,1776081469.390765,599616562177296574,-435,-601,-712
1.061930,1776081469.390765,599616562177296574,-432,-607,-714
1.066930,1776081469.390765,599616562177296574,-433,-604,-715
1.071930,1776081469.390765,599616562177296574,-429,-601,-718
1.076930,1776081469.390765,599616562177296574,-429,-601,-716
1.081930,1776081469.390765,599616562177296574,-433,-595,-719
1.086930,1776081469.390765,599616562177296574,-430,-590,-717
1.091930,1776081469.390765,599616562177296574,-434,-590,-721
1.096930,1776081469.390765,599616562177296574,-439,-586,-721
1.101930,1776081469.390765,599616562177296574,-442,-583,-724
1.106930,1776081469.390765,599616562177296574,-444,-581,-722
1.111930,1776081469.390765,599616562177296574,-441,-583,-722
1.116930,1776081469.390765,599616562177296574,-441,-585,-722
1.121930,1776081469.390765,599616562177296574,-437,-587,-722
1.126930,1776081469.390765,599616562177296574,-433,-592,-720
1.131930,1776081469.390765,599616562177296574,-432,-595,-719
1.136930,1776081469.390765,599616562177296574,-432,-595,-719
1.141930,1776081469.390765,599616562177296574,-432,-599,-716
1.146930,1776081469.390765,599616562177296574,-431,-602,-716
1.151930,1776081469.390765,599616562177296574,-431,-598,-718
1.156930,1776081469.390765,599616562177296574,-430,-597,-718
1.161930,1776081469.390765,599616562177296574,-430,-589,-719
1.166930,1776081469.390765,599616562177296574,-433,-586,-720
1.171930,1776081469.390765,599616562177296574,-434,-586,-717
1.176930,1776081469.390765,599616562177296574,-435,-591,-720
1.181930,1776081469.390765,599616562177296574,-434,-589,-721
1.186930,1776081469.390765,599616562177296574,-438,-590,-720
1.191930,1776081469.390765,599616562177296574,-438,-592,-717
1.196930,1776081469.390765,599616562177296574,-437,-591,-717
1.201930,1776081469.390765,599616562177296574,-436,-588,-719
1.206930,1776081469.390765,599616562177296574,-436,-590,-719
1.211930,1776081469.390765,599616562177296574,-438,-590,-723
1.216930,1776081469.390765,599616562177296574,-436,-593,-722
1.221930,1776081469.390765,599616562177296574,-435,-594,-719
1.226930,1776081469.390765,599616562177296574,-437,-595,-718
1.231930,1776081469.390765,599616562177296574,-433,-590,-718
1.233171,1776081469.611916,599616562353537998,-443,-595,-721
1.238171,1776081469.611916,599616562353537998,-436,-592,-721
1.243171,1776081469.611916,599616562353537998,-438,-593,-719
1.248171,1776081469.611916,599616562353537998,-439,-592,-719
1.253171,1776081469.611916,599616562353537998,-439,-586,-719
1.258171,1776081469.611916,599616562353537998,-435,-594,-716
1.263171,1776081469.611916,599616562353537998,-437,-588,-721
1.268171,1776081469.611916,599616562353537998,-437,-584,-721
1.273171,1776081469.611916,599616562353537998,-433,-583,-722
1.278171,1776081469.611916,599616562353537998,-436,-585,-720
1.283171,1776081469.611916,599616562353537998,-438,-585,-718
1.288171,1776081469.611916,599616562353537998,-443,-590,-717
1.293171,1776081469.611916,599616562353537998,-439,-593,-719
1.298171,1776081469.611916,599616562353537998,-440,-595,-717
1.303171,1776081469.611916,599616562353537998,-437,-594,-719
1.308171,1776081469.611916,599616562353537998,-440,-594,-718
1.313171,1776081469.611916,599616562353537998,-438,-593,-715
1.318171,1776081469.611916,599616562353537998,-440,-588,-719
1.323171,1776081469.611916,599616562353537998,-441,-590,-717
1.328171,1776081469.611916,599616562353537998,-437,-593,-718
1.333171,1776081469.611916,599616562353537998,-443,-587,-722
1.338171,1776081469.611916,599616562353537998,-440,-586,-718
1.343171,1776081469.611916,599616562353537998,-438,-588,-720
1.348171,1776081469.611916,599616562353537998,-436,-581,-713
1.353171,1776081469.611916,599616562353537998,-428,-591,-716
1.358171,1776081469.611916,599616562353537998,-435,-594,-715
1.363171,1776081469.611916,599616562353537998,-454,-590,-730
1.368171,1776081469.611916,599616562353537998,-455,-581,-738
1.373171,1776081469.611916,599616562353537998,-442,-582,-729
1.378171,1776081469.611916,599616562353537998,-440,-585,-725
1.383171,1776081469.611916,599616562353537998,-436,-587,-725
1.388171,1776081469.611916,599616562353537998,-423,-585,-701
1.393171,1776081469.611916,599616562353537998,-427,-587,-718
1.398171,1776081469.611916,599616562353537998,-430,-598,-727
1.403171,1776081469.611916,599616562353537998,-428,-596,-728
1.408171,1776081469.611916,599616562353537998,-427,-596,-727
1.409413,1776081469.747209,599616562529779448,-425,-594,-728
1.414413,1776081469.747209,599616562529779448,-428,-585,-724
1.419413,1776081469.747209,599616562529779448,-435,-581,-720
1.424413,1776081469.747209,599616562529779448,-438,-582,-719
1.429413,1776081469.747209,599616562529779448,-445,-594,-716
1.434413,1776081469.747209,599616562529779448,-451,-592,-716
1.439413,1776081469.747209,599616562529779448,-456,-598,-716
1.444413,1776081469.747209,599616562529779448,-456,-597,-719
1.449413,1776081469.747209,599616562529779448,-451,-592,-723
1.454413,1776081469.747209,599616562529779448,-451,-586,-723
1.459413,1776081469.747209,599616562529779448,-440,-581,-722
1.464413,1776081469.747209,599616562529779448,-441,-583,-723
1.469413,1776081469.747209,599616562529779448,-440,-584,-723
1.474413,1776081469.747209,599616562529779448,-438,-581,-720
1.479413,1776081469.747209,599616562529779448,-439,-584,-719
1.484413,1776081469.747209,599616562529779448,-438,-592,-719
1.489413,1776081469.747209,599616562529779448,-437,-589,-718
1.494413,1776081469.747209,599616562529779448,-435,-592,-719
1.499413,1776081469.747209,599616562529779448,-435,-592,-718
1.504413,1776081469.747209,599616562529779448,-434,-587,-719
1.509413,1776081469.747209,599616562529779448,-438,-591,-720
1.514413,1776081469.747209,599616562529779448,-432,-588,-721
1.519413,1776081469.747209,599616562529779448,-433,-587,-719
1.524413,1776081469.747209,599616562529779448,-434,-584,-719
1.529413,1776081469.747209,599616562529779448,-431,-587,-718
1.534413,1776081469.747209,599616562529779448,-430,-587,-718
1.539413,1776081469.747209,599616562529779448,-428,-594,-718
1.544413,1776081469.747209,599616562529779448,-427,-597,-721
1.549413,1776081469.747209,599616562529779448,-430,-590,-706
1.554413,1776081469.747209,599616562529779448,-463,-580,-732
1.559413,1776081469.747209,599616562529779448,-448,-588,-751
1.564413,1776081469.747209,599616562529779448,-432,-586,-728
1.569413,1776081469.747209,599616562529779448,-442,-572,-726
1.574413,1776081469.747209,599616562529779448,-437,-576,-719
1.579413,1776081469.747209,599616562529779448,-437,-590,-722
1.584413,1776081469.747209,599616562529779448,-440,-592,-724
1.585593,1776081469.927882,599616562705959878,-443,-586,-718
1.590593,1776081469.927882,599616562705959878,-440,-588,-719
1.595593,1776081469.927882,599616562705959878,-445,-586,-718
1.600593,1776081469.927882,599616562705959878,-448,-584,-720
1.605593,1776081469.927882,599616562705959878,-449,-586,-717
1.610593,1776081469.927882,599616562705959878,-441,-580,-718
1.615593,1776081469.927882,599616562705959878,-444,-587,-717
1.620593,1776081469.927882,599616562705959878,-442,-588,-712
1.625593,1776081469.927882,599616562705959878,-439,-593,-717
1.630593,1776081469.927882,599616562705959878,-439,-595,-716
1.635593,1776081469.927882,599616562705959878,-436,-595,-715
1.640593,1776081469.927882,599616562705959878,-439,-596,-718
1.645593,1776081469.927882,599616562705959878,-436,-589,-720
1.650593,1776081469.927882,599616562705959878,-434,-584,-722
1.655593,1776081469.927882,599616562705959878,-438,-586,-723
1.660593,1776081469.927882,599616562705959878,-436,-582,-722
1.665593,1776081469.927882,599616562705959878,-435,-583,-725
1.670593,1776081469.927882,599616562705959878,-438,-587,-724
1.675593,1776081469.927882,599616562705959878,-440,-581,-723
1.680593,1776081469.927882,599616562705959878,-443,-583,-720
1.685593,1776081469.927882,599616562705959878,-446,-587,-720
1.690593,1776081469.927882,599616562705959878,-450,-586,-719
1.695593,1776081469.927882,599616562705959878,-447,-590,-718
1.700593,1776081469.927882,599616562705959878,-448,-592,-718
1.705593,1776081469.927882,599616562705959878,-450,-594,-717
1.710593,1776081469.927882,599616562705959878,-447,-590,-718
1.715593,1776081469.927882,599616562705959878,-446,-587,-718
1.720593,1776081469.927882,599616562705959878,-441,-589,-721
1.725593,1776081469.927882,599616562705959878,-438,-586,-717
1.730593,1776081469.927882,599616562705959878,-437,-584,-718
1.735593,1776081469.927882,599616562705959878,-433,-576,-721
1.740593,1776081469.927882,599616562705959878,-432,-580,-719
1.745593,1776081469.927882,599616562705959878,-434,-580,-715
1.750593,1776081469.927882,599616562705959878,-434,-585,-720
1.755593,1776081469.927882,599616562705959878,-443,-586,-721
1.760593,1776081469.927882,599616562705959878,-444,-588,-717
1.761804,1776081470.106210,599616562882170820,-449,-585,-721
1.766804,1776081470.106210,599616562882170820,-446,-586,-719
1.771804,1776081470.106210,599616562882170820,-446,-584,-719
1.776804,1776081470.106210,599616562882170820,-441,-581,-724
1.781804,1776081470.106210,599616562882170820,-444,-584,-721
1.786804,1776081470.106210,599616562882170820,-442,-587,-720
1.791804,1776081470.106210,599616562882170820,-443,-588,-721
1.796804,1776081470.106210,599616562882170820,-451,-595,-720
1.801804,1776081470.106210,599616562882170820,-446,-588,-719
1.806804,1776081470.106210,599616562882170820,-442,-584,-721
1.811804,1776081470.106210,599616562882170820,-438,-584,-722
1.816804,1776081470.106210,599616562882170820,-435,-579,-720
1.821804,1776081470.106210,599616562882170820,-435,-582,-721
1.826804,1776081470.106210,599616562882170820,-436,-579,-719
1.831804,1776081470.106210,599616562882170820,-440,-579,-719
1.836804,1776081470.106210,599616562882170820,-437,-585,-721
1.841804,1776081470.106210,599616562882170820,-442,-587,-719
1.846804,1776081470.106210,599616562882170820,-444,-586,-719
1.851804,1776081470.106210,599616562882170820,-448,-585,-719
1.856804,1776081470.106210,599616562882170820,-446,-587,-718
1.861804,1776081470.106210,599616562882170820,-442,-584,-719
1.866804,1776081470.106210,599616562882170820,-440,-585,-721
1.871804,1776081470.106210,599616562882170820,-438,-580,-720
1.876804,1776081470.106210,599616562882170820,-443,-584,-719
1.881804,1776081470.106210,599616562882170820,-446,-583,-720
1.886804,1776081470.106210,599616562882170820,-447,-584,-718
1.891804,1776081470.106210,599616562882170820,-445,-585,-716
1.896804,1776081470.106210,599616562882170820,-441,-584,-719
1.901804,1776081470.106210,599616562882170820,-439,-584,-720
1.906804,1776081470.106210,599616562882170820,-439,-585,-720
1.911804,1776081470.106210,599616562882170820,-445,-579,-719
1.916804,1776081470.106210,599616562882170820,-443,-581,-719
1.921804,1776081470.106210,599616562882170820,-443,-584,-719
1.926804,1776081470.106210,599616562882170820,-442,-588,-719
1.931804,1776081470.106210,599616562882170820,-444,-586,-718
1.936804,1776081470.106210,599616562882170820,-440,-588,-720
1.937985,1776081470.286822,599616563058351224,-441,-589,-719
1.942985,1776081470.286822,599616563058351224,-441,-581,-722
1.947985,1776081470.286822,599616563058351224,-445,-581,-719
1.952985,1776081470.286822,599616563058351224,-445,-585,-721
1.957985,1776081470.286822,599616563058351224,-445,-585,-721
1.962985,1776081470.286822,599616563058351224,-447,-583,-721
1.967985,1776081470.286822,599616563058351224,-440,-585,-720
1.972985,1776081470.286822,599616563058351224,-445,-588,-718
1.977985,1776081470.286822,599616563058351224,-445,-591,-713
1.982985,1776081470.286822,599616563058351224,-445,-586,-717
1.987985,1776081470.286822,599616563058351224,-449,-588,-720
1.992985,1776081470.286822,599616563058351224,-446,-581,-720
1.997985,1776081470.286822,599616563058351224,-445,-582,-721
2.002985,1776081470.286822,599616563058351224,-443,-579,-719
2.007985,1776081470.286822,599616563058351224,-436,-575,-719
2.012985,1776081470.286822,599616563058351224,-439,-577,-719
2.017985,1776081470.286822,599616563058351224,-442,-585,-719
2.022985,1776081470.286822,599616563058351224,-445,-584,-720
2.027984,1776081470.286822,599616563058351224,-451,-583,-721
2.032984,1776081470.286822,599616563058351224,-457,-584,-722
2.037984,1776081470.286822,599616563058351224,-454,-589,-718
2.042984,1776081470.286822,599616563058351224,-445,-582,-715
2.047984,1776081470.286822,599616563058351224,-436,-586,-714
2.052985,1776081470.286822,599616563058351224,-432,-591,-707
2.057985,1776081470.286822,599616563058351224,-448,-589,-722
2.062985,1776081470.286822,599616563058351224,-457,-585,-744
2.067985,1776081470.286822,599616563058351224,-451,-584,-733
2.072985,1776081470.286822,599616563058351224,-437,-579,-719
2.077985,1776081470.286822,599616563058351224,-445,-577,-719
2.082985,1776081470.286822,599616563058351224,-434,-584,-704
2.087985,1776081470.286822,599616563058351224,-440,-585,-719
2.092985,1776081470.286822,599616563058351224,-440,-589,-735
2.097985,1776081470.286822,599616563058351224,-427,-589,-727
2.102985,1776081470.286822,599616563058351224,-429,-591,-733
2.107985,1776081470.286822,599616563058351224,-429,-582,-730
2.112985,1776081470.286822,599616563058351224,-437,-574,-722
2.114195,1776081470.423041,599616563234562166,-447,-577,-723
2.119195,1776081470.423041,599616563234562166,-450,-583,-716
2.124195,1776081470.423041,599616563234562166,-457,-585,-713
2.129195,1776081470.423041,599616563234562166,-467,-594,-714
2.134195,1776081470.423041,599616563234562166,-465,-595,-716
2.139195,1776081470.423041,599616563234562166,-466,-596,-717
2.144195,1776081470.423041,599616563234562166,-460,-594,-720
2.149195,1776081470.423041,599616563234562166,-455,-586,-722
2.154195,1776081470.423041,599616563234562166,-449,-580,-722
2.159195,1776081470.423041,599616563234562166,-454,-585,-721
2.164195,1776081470.423041,599616563234562166,-449,-580,-720
2.169195,1776081470.423041,599616563234562166,-448,-580,-719
2.174195,1776081470.423041,599616563234562166,-438,-587,-717
2.179195,1776081470.423041,599616563234562166,-435,-585,-717
2.184195,1776081470.423041,599616563234562166,-432,-587,-718
2.189195,1776081470.423041,599616563234562166,-431,-590,-717
2.194195,1776081470.423041,599616563234562166,-434,-593,-714
2.199195,1776081470.423041,599616563234562166,-430,-587,-718
2.204195,1776081470.423041,599616563234562166,-437,-590,-718
2.209195,1776081470.423041,599616563234562166,-441,-588,-721
2.214195,1776081470.423041,599616563234562166,-446,-586,-721
2.219195,1776081470.423041,599616563234562166,-446,-584,-722
2.224195,1776081470.423041,599616563234562166,-448,-584,-718
2.229195,1776081470.423041,599616563234562166,-446,-586,-717
2.234195,1776081470.423041,599616563234562166,-445,-591,-715
2.239195,1776081470.423041,599616563234562166,-438,-592,-718
2.244195,1776081470.423041,599616563234562166,-437,-588,-719
2.249195,1776081470.423041,599616563234562166,-439,-579,-689
2.254195,1776081470.423041,599616563234562166,-469,-576,-741
2.259195,1776081470.423041,599616563234562166,-454,-587,-747
2.264195,1776081470.423041,599616563234562166,-445,-575,-724
2.269195,1776081470.423041,599616563234562166,-451,-570,-727
2.274195,1776081470.423041,599616563234562166,-448,-576,-719
2.279195,1776081470.423041,599616563234562166,-443,-586,-721
2.284195,1776081470.423041,599616563234562166,-441,-583,-722
2.289195,1776081470.423041,599616563234562166,-443,-581,-719
2.290406,1776081470.601389,599616563410773098,-449,-582,-720
2.295406,1776081470.601389,599616563410773098,-444,-587,-714
2.300406,1776081470.601389,599616563410773098,-444,-586,-715
2.305406,1776081470.601389,599616563410773098,-450,-584,-714
2.310406,1776081470.601389,599616563410773098,-445,-585,-717
2.315406,1776081470.601389,599616563410773098,-447,-582,-716
2.320406,1776081470.601389,599616563410773098,-445,-584,-714
2.325406,1776081470.601389,599616563410773098,-446,-587,-716
2.330406,1776081470.601389,599616563410773098,-448,-583,-718
2.335406,1776081470.601389,599616563410773098,-448,-583,-715
2.340406,1776081470.601389,599616563410773098,-452,-586,-718
2.345406,1776081470.601389,599616563410773098,-447,-581,-718
2.350406,1776081470.601389,599616563410773098,-444,-583,-717
2.355406,1776081470.601389,599616563410773098,-438,-578,-719
2.360406,1776081470.601389,599616563410773098,-436,-580,-719
2.365406,1776081470.601389,599616563410773098,-436,-583,-718
2.370406,1776081470.601389,599616563410773098,-439,-581,-720
2.375406,1776081470.601389,599616563410773098,-441,-586,-721
2.380406,1776081470.601389,599616563410773098,-444,-584,-723
2.385406,1776081470.601389,599616563410773098,-454,-587,-720
2.390406,1776081470.601389,599616563410773098,-457,-589,-717
2.395406,1776081470.601389,599616563410773098,-454,-582,-719
2.400406,1776081470.601389,599616563410773098,-460,-583,-718
2.405406,1776081470.601389,599616563410773098,-457,-585,-719
2.410406,1776081470.601389,599616563410773098,-452,-580,-720
2.415406,1776081470.601389,599616563410773098,-450,-583,-719
2.420406,1776081470.601389,599616563410773098,-445,-582,-718
2.425406,1776081470.601389,599616563410773098,-437,-587,-715
2.430406,1776081470.601389,599616563410773098,-439,-583,-719
2.435406,1776081470.601389,599616563410773098,-437,-582,-721
2.440406,1776081470.601389,599616563410773098,-443,-581,-722
2.445406,1776081470.601389,599616563410773098,-443,-582,-721
2.450406,1776081470.601389,599616563410773098,-444,-580,-720
2.455406,1776081470.601389,599616563410773098,-447,-586,-717
2.460406,1776081470.601389,599616563410773098,-448,-579,-719
2.465406,1776081470.601389,599616563410773098,-448,-579,-721
2.466648,1776081470.782580,599616563587014522,-450,-580,-718
2.471648,1776081470.782580,599616563587014522,-453,-584,-717
2.476648,1776081470.782580,599616563587014522,-454,-581,-720
2.481648,1776081470.782580,599616563587014522,-451,-582,-717
2.486648,1776081470.782580,599616563587014522,-446,-584,-719
2.491648,1776081470.782580,599616563587014522,-446,-581,-718
2.496648,1776081470.782580,599616563587014522,-440,-580,-719
2.501648,1776081470.782580,599616563587014522,-439,-581,-719
2.506648,1776081470.782580,599616563587014522,-441,-582,-721
2.511648,1776081470.782580,599616563587014522,-444,-585,-721
2.516648,1776081470.782580,599616563587014522,-448,-590,-720
2.521648,1776081470.782580,599616563587014522,-449,-588,-720
2.526648,1776081470.782580,599616563587014522,-449,-586,-719
2.531648,1776081470.782580,599616563587014522,-451,-587,-719
2.536648,1776081470.782580,599616563587014522,-445,-583,-718
2.541648,1776081470.782580,599616563587014522,-441,-587,-718
2.546648,1776081470.782580,599616563587014522,-443,-583,-718
2.551648,1776081470.782580,599616563587014522,-436,-586,-717
2.556648,1776081470.782580,599616563587014522,-437,-582,-719
2.561648,1776081470.782580,599616563587014522,-443,-580,-718
2.566648,1776081470.782580,599616563587014522,-445,-587,-719
2.571648,1776081470.782580,599616563587014522,-450,-581,-719
2.576648,1776081470.782580,599616563587014522,-451,-583,-721
2.581648,1776081470.782580,599616563587014522,-455,-587,-719
2.586648,1776081470.782580,599616563587014522,-457,-584,-718
2.591648,1776081470.782580,599616563587014522,-452,-585,-718
2.596648,1776081470.782580,599616563587014522,-448,-579,-720
2.601648,1776081470.782580,599616563587014522,-441,-583,-722
2.606648,1776081470.782580,599616563587014522,-438,-578,-720
2.611648,1776081470.782580,599616563587014522,-438,-583,-718
2.616648,1776081470.782580,599616563587014522,-440,-583,-719
2.621648,1776081470.782580,599616563587014522,-439,-584,-721
2.626648,1776081470.782580,599616563587014522,-444,-582,-718
2.631648,1776081470.782580,599616563587014522,-449,-580,-719
2.636648,1776081470.782580,599616563587014522,-453,-585,-720
2.641648,1776081470.782580,599616563587014522,-454,-584,-719
2.642767,1776081470.964011,599616563763133896,-456,-589,-719
2.647767,1776081470.964011,599616563763133896,-446,-586,-717
2.652767,1776081470.964011,599616563763133896,-443,-589,-716
2.657767,1776081470.964011,599616563763133896,-441,-584,-721
2.662767,1776081470.964011,599616563763133896,-438,-580,-719
2.667767,1776081470.964011,599616563763133896,-439,-580,-718
2.672767,1776081470.964011,599616563763133896,-443,-582,-720
2.677767,1776081470.964011,599616563763133896,-450,-581,-718
2.682767,1776081470.964011,599616563763133896,-443,-585,-716
2.687767,1776081470.964011,599616563763133896,-447,-580,-720
2.692767,1776081470.964011,599616563763133896,-448,-582,-723
2.697767,1776081470.964011,599616563763133896,-456,-585,-719
2.702767,1776081470.964011,599616563763133896,-459,-584,-717
2.707767,1776081470.964011,599616563763133896,-455,-586,-717
2.712767,1776081470.964011,599616563763133896,-453,-585,-717
2.717767,1776081470.964011,599616563763133896,-446,-586,-716
2.722767,1776081470.964011,599616563763133896,-445,-590,-716
2.727767,1776081470.964011,599616563763133896,-443,-592,-714
2.732767,1776081470.964011,599616563763133896,-443,-591,-713
2.737767,1776081470.964011,599616563763133896,-441,-595,-712
2.742767,1776081470.964011,599616563763133896,-440,-592,-714
2.747767,1776081470.964011,599616563763133896,-442,-595,-716
2.752767,1776081470.964011,599616563763133896,-445,-590,-716
2.757767,1776081470.964011,599616563763133896,-447,-590,-719
2.762767,1776081470.964011,599616563763133896,-441,-589,-719
2.767767,1776081470.964011,599616563763133896,-447,-592,-718
2.772767,1776081470.964011,599616563763133896,-451,-591,-717
2.777767,1776081470.964011,599616563763133896,-452,-584,-715
2.782767,1776081470.964011,599616563763133896,-444,-585,-718
2.787767,1776081470.964011,599616563763133896,-442,-586,-715
2.792767,1776081470.964011,599616563763133896,-433,-586,-717
2.797767,1776081470.964011,599616563763133896,-436,-584,-720
2.802767,1776081470.964011,599616563763133896,-433,-591,-718
2.807767,1776081470.964011,599616563763133896,-431,-590,-716
2.812767,1776081470.964011,599616563763133896,-435,-591,-716
2.817767,1776081470.964011,599616563763133896,-436,-588,-715
2.818917,1776081471.143320,599616563939283802,-437,-586,-712
2.823917,1776081471.143320,599616563939283802,-440,-582,-716
2.828917,1776081471.143320,599616563939283802,-444,-582,-717
2.833917,1776081471.143320,599616563939283802,-447,-586,-718
2.838917,1776081471.143320,599616563939283802,-452,-583,-720
2.843917,1776081471.143320,599616563939283802,-455,-585,-716
2.848917,1776081471.143320,599616563939283802,-460,-591,-717
2.853917,1776081471.143320,599616563939283802,-464,-588,-718
2.858917,1776081471.143320,599616563939283802,-461,-589,-719
2.863917,1776081471.143320,599616563939283802,-460,-585,-716
2.868917,1776081471.143320,599616563939283802,-461,-576,-720
2.873917,1776081471.143320,599616563939283802,-460,-575,-719
2.878917,1776081471.143320,599616563939283802,-458,-568,-724
2.883917,1776081471.143320,599616563939283802,-454,-566,-725
2.888917,1776081471.143320,599616563939283802,-459,-565,-728
2.893917,1776081471.143320,599616563939283802,-463,-563,-721
2.898917,1776081471.143320,599616563939283802,-452,-563,-718
2.903917,1776081471.143320,599616563939283802,-454,-571,-716
2.908917,1776081471.143320,599616563939283802,-445,-581,-710
2.913917,1776081471.143320,599616563939283802,-442,-594,-708
2.918917,1776081471.143320,599616563939283802,-441,-603,-703
2.923917,1776081471.143320,599616563939283802,-434,-612,-690
2.928917,1776081471.143320,599616563939283802,-423,-612,-685
2.933917,1776081471.143320,599616563939283802,-421,-615,-706
2.938917,1776081471.143320,599616563939283802,-418,-614,-698
2.943917,1776081471.143320,599616563939283802,-430,-606,-709
2.948917,1776081471.143320,599616563939283802,-441,-607,-725
2.953917,1776081471.143320,599616563939283802,-465,-613,-727
2.958917,1776081471.143320,599616563939283802,-464,-612,-713
2.963917,1776081471.143320,599616563939283802,-469,-605,-711
2.968917,1776081471.143320,599616563939283802,-465,-599,-705
2.973917,1776081471.143320,599616563939283802,-464,-602,-716
2.978917,1776081471.143320,599616563939283802,-461,-601,-720
2.983917,1776081471.143320,599616563939283802,-456,-601,-720
2.988917,1776081471.143320,599616563939283802,-465,-599,-722
2.993917,1776081471.143320,599616563939283802,-462,-598,-721
2.995006,1776081471.321474,599616564115372678,-461,-593,-717
3.000006,1776081471.321474,599616564115372678,-465,-593,-716
3.005006,1776081471.321474,599616564115372678,-470,-591,-712
3.010006,1776081471.321474,599616564115372678,-477,-590,-703
3.015006,1776081471.321474,599616564115372678,-482,-586,-702
3.020006,1776081471.321474,599616564115372678,-486,-576,-711
3.025006,1776081471.321474,599616564115372678,-484,-580,-714
3.030006,1776081471.321474,599616564115372678,-483,-585,-716
3.035006,1776081471.321474,599616564115372678,-483,-588,-716
3.040006,1776081471.321474,599616564115372678,-478,-590,-715
3.045006,1776081471.321474,599616564115372678,-474,-590,-715
3.050006,1776081471.321474,599616564115372678,-468,-586,-716
3.055006,1776081471.321474,599616564115372678,-456,-581,-714
3.060006,1776081471.321474,599616564115372678,-445,-586,-713
3.065006,1776081471.321474,599616564115372678,-441,-586,-713
3.070006,1776081471.321474,599616564115372678,-435,-589,-708
3.075006,1776081471.321474,599616564115372678,-432,-597,-712
3.080006,1776081471.321474,599616564115372678,-434,-602,-710
3.085006,1776081471.321474,599616564115372678,-436,-599,-711
3.090006,1776081471.321474,599616564115372678,-441,-594,-715
3.095006,1776081471.321474,599616564115372678,-447,-589,-716
3.100006,1776081471.321474,599616564115372678,-444,-590,-714
3.105006,1776081471.321474,599616564115372678,-443,-592,-710
3.110006,1776081471.321474,599616564115372678,-451,-595,-712
3.115006,1776081471.321474,599616564115372678,-449,-592,-713
3.120006,1776081471.321474,599616564115372678,-453,-596,-713
3.125006,1776081471.321474,599616564115372678,-450,-599,-714
3.130006,1776081471.321474,599616564115372678,-448,-603,-716
3.135006,1776081471.321474,599616564115372678,-446,-599,-673
3.140006,1776081471.321474,599616564115372678,-470,-603,-726
3.145006,1776081471.321474,599616564115372678,-460,-607,-731
3.150006,1776081471.321474,599616564115372678,-442,-599,-709
3.155006,1776081471.321474,599616564115372678,-438,-590,-713
3.160006,1776081471.321474,599616564115372678,-429,-595,-712
3.165006,1776081471.321474,599616564115372678,-431,-596,-712
3.170006,1776081471.321474,599616564115372678,-436,-598,-701
3.171156,1776081471.503123,599616564291522558,-438,-603,-699
3.176156,1776081471.503123,599616564291522558,-455,-607,-706
3.181156,1776081471.503123,599616564291522558,-471,-608,-712
3.186156,1776081471.503123,599616564291522558,-473,-611,-708
3.191156,1776081471.503123,599616564291522558,-471,-611,-708
3.196156,1776081471.503123,599616564291522558,-465,-609,-707
3.201156,1776081471.503123,599616564291522558,-459,-600,-707
3.206156,1776081471.503123,599616564291522558,-448,-597,-707
3.211156,1776081471.503123,599616564291522558,-442,-594,-704
3.216156,1776081471.503123,599616564291522558,-439,-599,-702
3.221156,1776081471.503123,599616564291522558,-438,-603,-703
3.226156,1776081471.503123,599616564291522558,-441,-603,-702
3.231156,1776081471.503123,599616564291522558,-441,-602,-706
3.236156,1776081471.503123,599616564291522558,-440,-605,-704
3.241156,1776081471.503123,599616564291522558,-441,-607,-699
3.246156,1776081471.503123,599616564291522558,-444,-613,-694
3.251156,1776081471.503123,599616564291522558,-449,-613,-698
3.256156,1776081471.503123,599616564291522558,-448,-615,-707
3.261156,1776081471.503123,599616564291522558,-459,-615,-705
3.266156,1776081471.503123,599616564291522558,-462,-614,-708
3.271156,1776081471.503123,599616564291522558,-462,-610,-707
3.276156,1776081471.503123,599616564291522558,-457,-606,-702
3.281156,1776081471.503123,599616564291522558,-458,-604,-708
3.286156,1776081471.503123,599616564291522558,-459,-600,-708
3.291156,1776081471.503123,599616564291522558,-462,-587,-712
3.296156,1776081471.503123,599616564291522558,-461,-582,-707
3.301156,1776081471.503123,599616564291522558,-463,-594,-708
3.306156,1776081471.503123,599616564291522558,-460,-604,-708
3.311156,1776081471.503123,599616564291522558,-462,-607,-706
3.316156,1776081471.503123,599616564291522558,-461,-610,-707
3.321156,1776081471.503123,599616564291522558,-461,-610,-707
3.326156,1776081471.503123,599616564291522558,-457,-609,-705
3.331156,1776081471.503123,599616564291522558,-454,-605,-706
3.336156,1776081471.503123,599616564291522558,-458,-605,-705
3.341156,1776081471.503123,599616564291522558,-463,-601,-704
3.346156,1776081471.503123,599616564291522558,-463,-599,-702
3.347367,1776081471.683225,599616564467733510,-464,-599,-698
3.352367,1776081471.683225,599616564467733510,-466,-600,-704
3.357367,1776081471.683225,599616564467733510,-472,-602,-706
3.362367,1776081471.683225,599616564467733510,-470,-601,-709
3.367367,1776081471.683225,599616564467733510,-470,-598,-707
3.372367,1776081471.683225,599616564467733510,-469,-605,-706
3.377367,1776081471.683225,599616564467733510,-463,-607,-706
3.382367,1776081471.683225,599616564467733510,-455,-606,-709
3.387367,1776081471.683225,599616564467733510,-446,-603,-712
3.392367,1776081471.683225,599616564467733510,-441,-599,-710
3.397367,1776081471.683225,599616564467733510,-440,-602,-709
3.402367,1776081471.683225,599616564467733510,-443,-604,-705
3.407367,1776081471.683225,599616564467733510,-445,-606,-702
3.412367,1776081471.683225,599616564467733510,-447,-607,-693
3.417367,1776081471.683225,599616564467733510,-445,-608,-701
3.422367,1776081471.683225,599616564467733510,-448,-606,-701
3.427367,1776081471.683225,599616564467733510,-457,-605,-703
3.432367,1776081471.683225,599616564467733510,-456,-604,-704
3.437367,1776081471.683225,599616564467733510,-456,-605,-705
3.442367,1776081471.683225,599616564467733510,-450,-607,-704
3.447367,1776081471.683225,599616564467733510,-448,-608,-704
3.452367,1776081471.683225,599616564467733510,-448,-607,-698
3.457367,1776081471.683225,599616564467733510,-442,-605,-701
3.462367,1776081471.683225,599616564467733510,-441,-606,-710
3.467367,1776081471.683225,599616564467733510,-440,-609,-710
3.472367,1776081471.683225,599616564467733510,-439,-605,-709
3.477367,1776081471.683225,599616564467733510,-442,-604,-709
3.482367,1776081471.683225,599616564467733510,-447,-604,-708
3.487367,1776081471.683225,599616564467733510,-456,-602,-704
3.492367,1776081471.683225,599616564467733510,-461,-606,-706
3.497367,1776081471.683225,599616564467733510,-462,-604,-704
3.502367,1776081471.683225,599616564467733510,-465,-607,-703
3.507367,1776081471.683225,599616564467733510,-468,-609,-700
3.512367,1776081471.683225,599616564467733510,-469,-609,-702
3.517367,1776081471.683225,599616564467733510,-469,-609,-697
3.522367,1776081471.683225,599616564467733510,-468,-607,-703
3.523578,1776081471.907282,599616564643944442,-465,-606,-714
3.528578,1776081471.907282,599616564643944442,-466,-601,-710
3.533578,1776081471.907282,599616564643944442,-469,-600,-708
3.538578,1776081471.907282,599616564643944442,-469,-603,-705
3.543578,1776081471.907282,599616564643944442,-471,-600,-703
3.548578,1776081471.907282,599616564643944442,-472,-601,-705
3.553578,1776081471.907282,599616564643944442,-473,-603,-702
3.558578,1776081471.907282,599616564643944442,-469,-598,-703
3.563578,1776081471.907282,599616564643944442,-467,-603,-704
3.568578,1776081471.907282,599616564643944442,-464,-606,-700
3.573578,1776081471.907282,599616564643944442,-462,-608,-700
3.578578,1776081471.907282,599616564643944442,-456,-609,-698
3.583578,1776081471.907282,599616564643944442,-445,-610,-700
3.588578,1776081471.907282,599616564643944442,-448,-607,-698
3.593578,1776081471.907282,599616564643944442,-455,-609,-701
3.598578,1776081471.907282,599616564643944442,-458,-608,-697
3.603578,1776081471.907282,599616564643944442,-464,-609,-703
3.608578,1776081471.907282,599616564643944442,-465,-610,-700
3.613578,1776081471.907282,599616564643944442,-465,-610,-703
3.618578,1776081471.907282,599616564643944442,-468,-609,-700
3.623578,1776081471.907282,599616564643944442,-467,-607,-702
3.628578,1776081471.907282,599616564643944442,-462,-601,-701
3.633578,1776081471.907282,599616564643944442,-466,-601,-698
3.638578,1776081471.907282,599616564643944442,-459,-600,-705
3.643578,1776081471.907282,599616564643944442,-459,-598,-705
3.648578,1776081471.907282,599616564643944442,-463,-602,-700
3.653578,1776081471.907282,599616564643944442,-461,-606,-698
3.658578,1776081471.907282,599616564643944442,-462,-612,-690
3.663578,1776081471.907282,599616564643944442,-457,-609,-686
3.668578,1776081471.907282,599616564643944442,-454,-610,-681
3.673578,1776081471.907282,599616564643944442,-451,-607,-690
3.678578,1776081471.907282,599616564643944442,-446,-605,-697
3.683578,1776081471.907282,599616564643944442,-442,-587,-712
3.688578,1776081471.907282,599616564643944442,-426,-567,-720
3.693578,1776081471.907282,599616564643944442,-420,-568,-729
3.698578,1776081471.907282,599616564643944442,-416,-569,-725
3.699728,1776081472.041946,599616564820094318,-414,-571,-708
3.704728,1776081472.041946,599616564820094318,-418,-568,-686
3.709728,1776081472.041946,599616564820094318,-419,-569,-663
3.714728,1776081472.041946,599616564820094318,-417,-561,-669
3.719728,1776081472.041946,599616564820094318,-415,-577,-673
3.724728,1776081472.041946,599616564820094318,-411,-594,-701
3.729728,1776081472.041946,599616564820094318,-406,-606,-715
3.734728,1776081472.041946,599616564820094318,-405,-612,-761
3.739728,1776081472.041946,599616564820094318,-415,-594,-770
3.744728,1776081472.041946,599616564820094318,-413,-579,-762
3.749728,1776081472.041946,599616564820094318,-412,-572,-761
3.754728,1776081472.041946,599616564820094318,-415,-586,-742
3.759728,1776081472.041946,599616564820094318,-425,-601,-755
3.764728,1776081472.041946,599616564820094318,-439,-610,-761
3.769728,1776081472.041946,599616564820094318,-455,-616,-769
3.774728,1776081472.041946,599616564820094318,-474,-625,-773
3.779728,1776081472.041946,599616564820094318,-483,-627,-765
3.784728,1776081472.041946,599616564820094318,-489,-618,-769
3.789728,1776081472.041946,599616564820094318,-485,-606,-790
3.794728,1776081472.041946,599616564820094318,-472,-605,-793
3.799728,1776081472.041946,599616564820094318,-474,-613,-790
3.804728,1776081472.041946,599616564820094318,-475,-635,-806
3.809728,1776081472.041946,599616564820094318,-483,-686,-826
3.814728,1776081472.041946,599616564820094318,-500,-735,-836
3.819728,1776081472.041946,599616564820094318,-511,-758,-831
3.824728,1776081472.041946,599616564820094318,-516,-768,-847
3.829728,1776081472.041946,599616564820094318,-518,-761,-880
3.834728,1776081472.041946,599616564820094318,-490,-749,-905
3.839728,1776081472.041946,599616564820094318,-472,-736,-914
3.844728,1776081472.041946,599616564820094318,-459,-712,-919
3.849728,1776081472.041946,599616564820094318,-446,-695,-919
3.854728,1776081472.041946,599616564820094318,-435,-713,-913
3.859728,1776081472.041946,599616564820094318,-441,-739,-927
3.864728,1776081472.041946,599616564820094318,-459,-754,-939
3.869728,1776081472.041946,599616564820094318,-479,-744,-945
3.874728,1776081472.041946,599616564820094318,-493,-750,-939
3.875847,1776081472.224106,599616564996213686,-497,-758,-920
3.880847,1776081472.224106,599616564996213686,-458,-770,-813
3.885847,1776081472.224106,599616564996213686,-390,-781,-699
3.890847,1776081472.224106,599616564996213686,-201,-738,-459
3.895847,1776081472.224106,599616564996213686,158,-581,18
3.900847,1776081472.224106,599616564996213686,-94,-776,-345
3.905847,1776081472.224106,599616564996213686,-275,-890,-786
3.910847,1776081472.224106,599616564996213686,-253,-830,-869
3.915847,1776081472.224106,599616564996213686,-252,-691,-1097
3.920847,1776081472.224106,599616564996213686,-243,-552,-1286
3.925847,1776081472.224106,599616564996213686,-237,-506,-1359
3.930847,1776081472.224106,599616564996213686,-209,-494,-1199
3.935847,1776081472.224106,599616564996213686,-182,-493,-1034
3.940847,1776081472.224106,599616564996213686,-132,-506,-693
3.945847,1776081472.224106,599616564996213686,-152,-513,-628
3.950847,1776081472.224106,599616564996213686,-174,-484,-753
3.955847,1776081472.224106,599616564996213686,-187,-476,-795
3.960847,1776081472.224106,599616564996213686,-205,-458,-722
3.965847,1776081472.224106,599616564996213686,-175,-351,-655
3.970847,1776081472.224106,599616564996213686,-279,-476,-656
3.975847,1776081472.224106,599616564996213686,-231,-521,-604
3.980847,1776081472.224106,599616564996213686,-160,-547,-600
3.985847,1776081472.224106,599616564996213686,-139,-563,-577
3.990847,1776081472.224106,599616564996213686,-135,-574,-564
3.995847,1776081472.224106,599616564996213686,-146,-559,-546
4.000847,1776081472.224106,599616564996213686,-143,-527,-562
4.005847,1776081472.224106,599616564996213686,-119,-493,-611
4.010847,1776081472.224106,599616564996213686,-63,-469,-680
4.015847,1776081472.224106,599616564996213686,-37,-513,-755
4.020847,1776081472.224106,599616564996213686,-35,-572,-799
4.025847,1776081472.224106,599616564996213686,-38,-576,-856
4.030847,1776081472.224106,599616564996213686,-32,-555,-854
4.035847,1776081472.224106,599616564996213686,-10,-548,-807
4.040847,1776081472.224106,599616564996213686,11,-505,-743
4.045847,1776081472.224106,599616564996213686,27,-455,-717
4.050847,1776081472.224106,599616564996213686,39,-410,-722
4.051966,1776081472.403099,599616565172333064,34,-385,-721
4.056966,1776081472.403099,599616565172333064,22,-390,-743
4.061966,1776081472.403099,599616565172333064,22,-422,-756
4.066966,1776081472.403099,599616565172333064,24,-461,-763
4.071966,1776081472.403099,599616565172333064,37,-489,-774
4.076966,1776081472.403099,599616565172333064,48,-498,-812
4.081966,1776081472.403099,599616565172333064,73,-511,-845
4.086966,1776081472.403099,599616565172333064,76,-517,-870
4.091966,1776081472.403099,599616565172333064,83,-537,-906
4.096966,1776081472.403099,599616565172333064,84,-549,-906
4.101966,1776081472.403099,599616565172333064,101,-556,-878
4.106966,1776081472.403099,599616565172333064,108,-567,-850
4.111966,1776081472.403099,599616565172333064,114,-582,-839
4.116966,1776081472.403099,599616565172333064,116,-595,-822
4.121966,1776081472.403099,599616565172333064,127,-598,-811
4.126966,1776081472.403099,599616565172333064,122,-600,-806
4.131966,1776081472.403099,599616565172333064,128,-606,-825
4.136966,1776081472.403099,599616565172333064,133,-605,-847
4.141966,1776081472.403099,599616565172333064,143,-605,-882
4.146966,1776081472.403099,599616565172333064,142,-597,-929
4.151966,1776081472.403099,599616565172333064,146,-574,-953
4.156966,1776081472.403099,599616565172333064,139,-539,-966
4.161966,1776081472.403099,599616565172333064,119,-505,-961
4.166966,1776081472.403099,599616565172333064,107,-489,-951
4.171966,1776081472.403099,599616565172333064,94,-489,-959
4.176966,1776081472.403099,599616565172333064,92,-510,-999
4.181966,1776081472.403099,599616565172333064,127,-566,-1013
4.186966,1776081472.403099,599616565172333064,182,-632,-971
4.191966,1776081472.403099,599616565172333064,245,-701,-903
4.196966,1776081472.403099,599616565172333064,323,-752,-819
4.201966,1776081472.403099,599616565172333064,375,-779,-751
4.206966,1776081472.403099,599616565172333064,405,-810,-738
4.211966,1776081472.403099,599616565172333064,393,-833,-739
4.216966,1776081472.403099,599616565172333064,356,-844,-763
4.221966,1776081472.403099,599616565172333064,309,-852,-785
4.226966,1776081472.403099,599616565172333064,254,-838,-766
4.228116,1776081472.537345,599616565348482970,218,-804,-715
4.233116,1776081472.537345,599616565348482970,189,-753,-660
4.238116,1776081472.537345,599616565348482970,123,-684,-648
4.243116,1776081472.537345,599616565348482970,49,-623,-669
4.248116,1776081472.537345,599616565348482970,-14,-593,-714
4.253116,1776081472.537345,599616565348482970,-39,-596,-772
4.258116,1776081472.537345,599616565348482970,-48,-615,-846
4.263116,1776081472.537345,599616565348482970,-50,-635,-917
4.268116,1776081472.537345,599616565348482970,-35,-652,-959
4.273116,1776081472.537345,599616565348482970,-19,-650,-973
4.278116,1776081472.537345,599616565348482970,15,-638,-951
4.283116,1776081472.537345,599616565348482970,73,-616,-933
4.288116,1776081472.537345,599616565348482970,159,-594,-924
4.293116,1776081472.537345,599616565348482970,243,-557,-918
4.298116,1776081472.537345,599616565348482970,344,-521,-922
4.303116,1776081472.537345,599616565348482970,425,-491,-885
4.308116,1776081472.537345,599616565348482970,462,-466,-857
4.313116,1776081472.537345,599616565348482970,488,-428,-856
4.318116,1776081472.537345,599616565348482970,496,-397,-873
4.323116,1776081472.537345,599616565348482970,479,-381,-884
4.328116,1776081472.537345,599616565348482970,463,-379,-892
4.333116,1776081472.537345,599616565348482970,453,-384,-883
4.338116,1776081472.537345,599616565348482970,428,-393,-859
4.343116,1776081472.537345,599616565348482970,386,-421,-844
4.348116,1776081472.537345,599616565348482970,342,-453,-838
4.353116,1776081472.537345,599616565348482970,284,-481,-832
4.358116,1776081472.537345,599616565348482970,237,-503,-814
4.363116,1776081472.537345,599616565348482970,211,-524,-776
4.368116,1776081472.537345,599616565348482970,193,-537,-773
4.373116,1776081472.537345,599616565348482970,164,-536,-764
4.378116,1776081472.537345,599616565348482970,165,-515,-773
4.383116,1776081472.537345,599616565348482970,177,-504,-827
4.388116,1776081472.537345,599616565348482970,190,-489,-833
4.393116,1776081472.537345,599616565348482970,204,-467,-797
4.398116,1776081472.537345,599616565348482970,227,-448,-745
4.403116,1776081472.537345,599616565348482970,252,-443,-755
4.404205,1776081472.717232,599616565524571846,278,-443,-791
4.409205,1776081472.717232,599616565524571846,334,-448,-812
4.414205,1776081472.717232,599616565524571846,374,-451,-819
4.419205,1776081472.717232,599616565524571846,420,-476,-815
4.424205,1776081472.717232,599616565524571846,445,-504,-793
4.429205,1776081472.717232,599616565524571846,399,-505,-828
4.434205,1776081472.717232,599616565524571846,382,-523,-810
4.439205,1776081472.717232,599616565524571846,366,-553,-772
4.444205,1776081472.717232,599616565524571846,331,-570,-761
4.449205,1776081472.717232,599616565524571846,277,-571,-764
4.454205,1776081472.717232,599616565524571846,233,-566,-780
4.459205,1776081472.717232,599616565524571846,204,-566,-803
4.464205,1776081472.717232,599616565524571846,181,-560,-811
4.469205,1776081472.717232,599616565524571846,170,-550,-816
4.474205,1776081472.717232,599616565524571846,167,-545,-810
4.479205,1776081472.717232,599616565524571846,170,-542,-803
4.484205,1776081472.717232,599616565524571846,192,-541,-801
4.489205,1776081472.717232,599616565524571846,210,-540,-793
4.494205,1776081472.717232,599616565524571846,243,-542,-792
4.499205,1776081472.717232,599616565524571846,280,-549,-784
4.504205,1776081472.717232,599616565524571846,315,-553,-772
4.509205,1776081472.717232,599616565524571846,337,-569,-785
4.514205,1776081472.717232,599616565524571846,348,-583,-793
4.519205,1776081472.717232,599616565524571846,352,-595,-814
4.524205,1776081472.717232,599616565524571846,347,-606,-827
4.529205,1776081472.717232,599616565524571846,322,-613,-835
4.534205,1776081472.717232,599616565524571846,272,-608,-846
4.539205,1776081472.717232,599616565524571846,235,-601,-854
4.544205,1776081472.717232,599616565524571846,208,-596,-870
4.549205,1776081472.717232,599616565524571846,185,-579,-903
4.554205,1776081472.717232,599616565524571846,170,-558,-919
4.559205,1776081472.717232,599616565524571846,166,-540,-940
4.564205,1776081472.717232,599616565524571846,162,-510,-938
4.569205,1776081472.717232,599616565524571846,163,-492,-922
4.574205,1776081472.717232,599616565524571846,167,-481,-924
4.579205,1776081472.717232,599616565524571846,167,-479,-939
4.580233,1776081472.897685,599616565700599650,169,-481,-933
4.585233,1776081472.897685,599616565700599650,168,-482,-916
4.590233,1776081472.897685,599616565700599650,160,-481,-903
4.595233,1776081472.897685,599616565700599650,149,-476,-894
4.600233,1776081472.897685,599616565700599650,159,-472,-870
4.605233,1776081472.897685,599616565700599650,145,-452,-839
4.610233,1776081472.897685,599616565700599650,150,-474,-815
4.615233,1776081472.897685,599616565700599650,244,-490,-747
4.620233,1776081472.897685,599616565700599650,281,-498,-704
4.625233,1776081472.897685,599616565700599650,281,-504,-678
4.630233,1776081472.897685,599616565700599650,269,-504,-682
4.635233,1776081472.897685,599616565700599650,266,-501,-681
4.640233,1776081472.897685,599616565700599650,333,-504,-704
4.645233,1776081472.897685,599616565700599650,597,-516,-1151
4.650233,1776081472.897685,599616565700599650,1235,-415,-1906
4.655233,1776081472.897685,599616565700599650,938,-375,-632
4.660233,1776081472.897685,599616565700599650,680,-568,-449
4.665233,1776081472.897685,599616565700599650,427,-657,-474
4.670233,1776081472.897685,599616565700599650,292,-655,-627
4.675233,1776081472.897685,599616565700599650,253,-643,-739
4.680233,1776081472.897685,599616565700599650,241,-643,-787
4.685233,1776081472.897685,599616565700599650,219,-642,-793
4.690233,1776081472.897685,599616565700599650,200,-626,-791
4.695233,1776081472.897685,599616565700599650,164,-614,-789
4.700233,1776081472.897685,599616565700599650,107,-609,-812
4.705233,1776081472.897685,599616565700599650,88,-613,-838
4.710233,1776081472.897685,599616565700599650,116,-617,-834
4.715233,1776081472.897685,599616565700599650,167,-622,-828
4.720233,1776081472.897685,599616565700599650,199,-622,-820
4.725233,1776081472.897685,599616565700599650,197,-622,-810
4.730233,1776081472.897685,599616565700599650,177,-618,-805
4.735233,1776081472.897685,599616565700599650,205,-621,-758
4.740233,1776081472.897685,599616565700599650,211,-619,-792
4.745233,1776081472.897685,599616565700599650,218,-611,-800
4.750233,1776081472.897685,599616565700599650,220,-591,-784
4.755233,1776081472.897685,599616565700599650,244,-567,-724
4.756352,1776081473.076607,599616565876719022,269,-542,-706
4.761352,1776081473.076607,599616565876719022,269,-516,-725
4.766352,1776081473.076607,599616565876719022,260,-509,-739
4.771352,1776081473.076607,599616565876719022,252,-500,-746
4.776352,1776081473.076607,599616565876719022,206,-500,-784
4.781352,1776081473.076607,599616565876719022,170,-504,-807
4.786352,1776081473.076607,599616565876719022,159,-515,-785
4.791352,1776081473.076607,599616565876719022,147,-532,-771
4.796352,1776081473.076607,599616565876719022,140,-547,-785
4.801352,1776081473.076607,599616565876719022,152,-565,-809
4.806352,1776081473.076607,599616565876719022,158,-594,-822
4.811352,1776081473.076607,599616565876719022,156,-628,-809
4.816352,1776081473.076607,599616565876719022,157,-692,-795
4.821352,1776081473.076607,599616565876719022,166,-739,-803
4.826352,1776081473.076607,599616565876719022,153,-774,-787
4.831352,1776081473.076607,599616565876719022,129,-798,-760
4.836352,1776081473.076607,599616565876719022,111,-805,-747
4.841352,1776081473.076607,599616565876719022,107,-804,-738
4.846352,1776081473.076607,599616565876719022,103,-805,-761
4.851352,1776081473.076607,599616565876719022,108,-802,-818
4.856352,1776081473.076607,599616565876719022,105,-799,-875
4.861352,1776081473.076607,599616565876719022,86,-780,-908
4.866352,1776081473.076607,599616565876719022,96,-768,-894
4.871352,1776081473.076607,599616565876719022,145,-771,-908
4.876352,1776081473.076607,599616565876719022,185,-784,-939
4.881352,1776081473.076607,599616565876719022,213,-802,-949
4.886352,1776081473.076607,599616565876719022,253,-800,-974
4.891352,1776081473.076607,599616565876719022,322,-797,-932
4.896352,1776081473.076607,599616565876719022,394,-798,-889
4.901352,1776081473.076607,599616565876719022,462,-809,-847
4.906352,1776081473.076607,599616565876719022,548,-829,-742
4.911352,1776081473.076607,599616565876719022,614,-817,-656
4.916352,1776081473.076607,599616565876719022,682,-769,-538
4.921352,1776081473.076607,599616565876719022,700,-690,-504
4.926352,1776081473.076607,599616565876719022,672,-599,-567
4.931352,1776081473.076607,599616565876719022,636,-538,-615
4.932472,1776081473.302474,599616566052838400,594,-517,-609
4.937472,1776081473.302474,599616566052838400,558,-496,-571
4.942472,1776081473.302474,599616566052838400,525,-496,-544
4.947472,1776081473.302474,599616566052838400,484,-513,-521
4.952472,1776081473.302474,599616566052838400,445,-545,-493
4.957472,1776081473.302474,599616566052838400,380,-576,-443
4.962472,1776081473.302474,599616566052838400,298,-609,-417
4.967472,1776081473.302474,599616566052838400,209,-629,-406
4.972472,1776081473.302474,599616566052838400,122,-657,-381
4.977472,1776081473.302474,599616566052838400,78,-697,-389
4.982472,1776081473.302474,599616566052838400,66,-727,-453
4.987472,1776081473.302474,599616566052838400,84,-747,-504
4.992472,1776081473.302474,599616566052838400,117,-753,-525
4.997472,1776081473.302474,599616566052838400,148,-747,-544
5.002472,1776081473.302474,599616566052838400,161,-721,-579
5.007472,1776081473.302474,599616566052838400,159,-685,-561
5.012472,1776081473.302474,599616566052838400,139,-660,-498
5.017472,1776081473.302474,599616566052838400,100,-634,-436
5.022472,1776081473.302474,599616566052838400,90,-627,-425
5.027472,1776081473.302474,599616566052838400,86,-612,-429
5.032472,1776081473.302474,599616566052838400,94,-598,-468
5.037472,1776081473.302474,599616566052838400,104,-580,-531
5.042472,1776081473.302474,599616566052838400,132,-555,-568
5.047472,1776081473.302474,599616566052838400,159,-528,-626
5.052472,1776081473.302474,599616566052838400,181,-509,-686
5.057472,1776081473.302474,599616566052838400,196,-496,-712
5.062472,1776081473.302474,599616566052838400,203,-489,-709
5.067472,1776081473.302474,599616566052838400,203,-486,-688
5.072472,1776081473.302474,599616566052838400,199,-486,-681
5.077472,1776081473.302474,599616566052838400,195,-497,-687
5.082472,1776081473.302474,599616566052838400,193,-519,-702
5.087472,1776081473.302474,599616566052838400,197,-547,-709
5.092472,1776081473.302474,599616566052838400,202,-581,-711
5.097472,1776081473.302474,599616566052838400,207,-612,-709
5.102472,1776081473.302474,599616566052838400,226,-635,-696
5.107472,1776081473.302474,599616566052838400,256,-664,-674
5.108530,1776081473.437018,599616566228896758,296,-688,-668
5.113530,1776081473.437018,599616566228896758,347,-702,-676
5.118530,1776081473.437018,599616566228896758,395,-715,-703
5.123530,1776081473.437018,599616566228896758,451,-719,-730
5.128530,1776081473.437018,599616566228896758,514,-724,-761
5.133530,1776081473.437018,599616566228896758,580,-732,-825
5.138530,1776081473.437018,599616566228896758,645,-736,-865
5.143530,1776081473.437018,599616566228896758,704,-739,-912
5.148530,1776081473.437018,599616566228896758,699,-726,-936
5.153530,1776081473.437018,599616566228896758,648,-695,-930
5.158530,1776081473.437018,599616566228896758,548,-670,-1004
5.163530,1776081473.437018,599616566228896758,431,-659,-1101
5.168530,1776081473.437018,599616566228896758,336,-658,-1115
5.173530,1776081473.437018,599616566228896758,265,-656,-1048
5.178530,1776081473.437018,599616566228896758,221,-649,-975
5.183530,1776081473.437018,599616566228896758,209,-660,-940
5.188530,1776081473.437018,599616566228896758,219,-672,-913
5.193530,1776081473.437018,599616566228896758,241,-668,-876
5.198530,1776081473.437018,599616566228896758,268,-636,-826
5.203530,1776081473.437018,599616566228896758,276,-605,-777
5.208530,1776081473.437018,599616566228896758,262,-557,-745
5.213530,1776081473.437018,599616566228896758,233,-537,-750
5.218530,1776081473.437018,599616566228896758,203,-541,-777
5.223530,1776081473.437018,599616566228896758,178,-565,-818
5.228530,1776081473.437018,599616566228896758,173,-574,-779
5.233530,1776081473.437018,599616566228896758,113,-556,-730
5.238530,1776081473.437018,599616566228896758,42,-525,-751
5.243530,1776081473.437018,599616566228896758,-22,-492,-771
5.248530,1776081473.437018,599616566228896758,-44,-469,-761
5.253530,1776081473.437018,599616566228896758,-66,-460,-778
5.258530,1776081473.437018,599616566228896758,-106,-479,-855
5.263530,1776081473.437018,599616566228896758,-126,-519,-929
5.268530,1776081473.437018,599616566228896758,-135,-583,-1025
5.273530,1776081473.437018,599616566228896758,-64,-630,-1066
5.278530,1776081473.437018,599616566228896758,7,-652,-1080
5.283530,1776081473.437018,599616566228896758,75,-648,-1078
5.284680,1776081473.617339,599616566405046648,155,-622,-1037
5.289680,1776081473.617339,599616566405046648,229,-609,-941
5.294680,1776081473.617339,599616566405046648,318,-582,-848
5.299680,1776081473.617339,599616566405046648,374,-587,-845
5.304680,1776081473.617339,599616566405046648,428,-604,-901
5.309680,1776081473.617339,599616566405046648,441,-607,-981
5.314680,1776081473.617339,599616566405046648,454,-615,-1051
5.319680,1776081473.617339,599616566405046648,463,-616,-1077
5.324680,1776081473.617339,599616566405046648,467,-619,-1068
5.329680,1776081473.617339,599616566405046648,474,-632,-1017
5.334680,1776081473.617339,599616566405046648,456,-638,-965
5.339680,1776081473.617339,599616566405046648,415,-630,-963
5.344680,1776081473.617339,599616566405046648,353,-622,-978
5.349680,1776081473.617339,599616566405046648,315,-619,-995
5.354680,1776081473.617339,599616566405046648,276,-631,-1016
5.359680,1776081473.617339,599616566405046648,262,-641,-1001
5.364680,1776081473.617339,599616566405046648,252,-652,-951
5.369680,1776081473.617339,599616566405046648,258,-645,-889
5.374680,1776081473.617339,599616566405046648,277,-628,-820
5.379680,1776081473.617339,599616566405046648,310,-613,-751
5.384680,1776081473.617339,599616566405046648,340,-588,-709
5.389680,1776081473.617339,599616566405046648,347,-539,-683
5.394680,1776081473.617339,599616566405046648,357,-498,-711
5.399680,1776081473.617339,599616566405046648,394,-472,-756
5.404680,1776081473.617339,599616566405046648,459,-439,-826
5.409680,1776081473.617339,599616566405046648,523,-399,-890
5.414680,1776081473.617339,599616566405046648,530,-370,-933
5.419680,1776081473.617339,599616566405046648,472,-359,-932
5.424680,1776081473.617339,599616566405046648,353,-364,-893
5.429680,1776081473.617339,599616566405046648,207,-382,-849
5.434680,1776081473.617339,599616566405046648,82,-416,-820
5.439680,1776081473.617339,599616566405046648,4,-447,-817
5.444680,1776081473.617339,599616566405046648,-7,-477,-835
5.449680,1776081473.617339,599616566405046648,35,-489,-852
5.454680,1776081473.617339,599616566405046648,109,-494,-837
5.459680,1776081473.617339,599616566405046648,169,-505,-775
5.460830,1776081473.795693,599616566581196544,196,-521,-721
5.465830,1776081473.795693,599616566581196544,222,-525,-699
5.470830,1776081473.795693,599616566581196544,269,-524,-711
5.475830,1776081473.795693,599616566581196544,301,-514,-746
5.480830,1776081473.795693,599616566581196544,349,-497,-737
5.485830,1776081473.795693,599616566581196544,413,-488,-713
5.490830,1776081473.795693,599616566581196544,442,-468,-713
5.495830,1776081473.795693,599616566581196544,441,-448,-724
5.500830,1776081473.795693,599616566581196544,418,-433,-709
5.505830,1776081473.795693,599616566581196544,363,-432,-716
5.510830,1776081473.795693,599616566581196544,344,-429,-722
5.515830,1776081473.795693,599616566581196544,351,-420,-723
5.520830,1776081473.795693,599616566581196544,365,-407,-771
5.525830,1776081473.795693,599616566581196544,363,-391,-793
5.530830,1776081473.795693,599616566581196544,386,-388,-809
5.535830,1776081473.795693,599616566581196544,400,-398,-800
5.540830,1776081473.795693,599616566581196544,403,-426,-796
5.545830,1776081473.795693,599616566581196544,398,-461,-780
5.550830,1776081473.795693,599616566581196544,389,-490,-756
5.555830,1776081473.795693,599616566581196544,393,-509,-742
5.560830,1776081473.795693,599616566581196544,374,-529,-744
5.565830,1776081473.795693,599616566581196544,345,-546,-744
5.570830,1776081473.795693,599616566581196544,294,-556,-756
5.575830,1776081473.795693,599616566581196544,264,-564,-770
5.580830,1776081473.795693,599616566581196544,256,-571,-802
5.585830,1776081473.795693,599616566581196544,253,-590,-804
5.590830,1776081473.795693,599616566581196544,266,-610,-797
5.595830,1776081473.795693,599616566581196544,287,-616,-763
5.600830,1776081473.795693,599616566581196544,292,-624,-732
5.605830,1776081473.795693,599616566581196544,297,-632,-720
5.610830,1776081473.795693,599616566581196544,283,-651,-725
5.615830,1776081473.795693,599616566581196544,258,-676,-732
5.620830,1776081473.795693,599616566581196544,218,-700,-738
5.625830,1776081473.795693,599616566581196544,210,-725,-750
5.630830,1776081473.795693,599616566581196544,206,-738,-750
5.635830,1776081473.795693,599616566581196544,198,-755,-745
5.636888,1776081473.976311,599616566757254892,180,-778,-753
5.641888,1776081473.976311,599616566757254892,163,-819,-791
5.646888,1776081473.976311,599616566757254892,139,-858,-818
5.651888,1776081473.976311,599616566757254892,92,-873,-831
5.656888,1776081473.976311,599616566757254892,67,-875,-838
5.661888,1776081473.976311,599616566757254892,23,-862,-844
5.666888,1776081473.976311,599616566757254892,6,-827,-830
5.671888,1776081473.976311,599616566757254892,34,-792,-783
5.676888,1776081473.976311,599616566757254892,81,-764,-784
5.681888,1776081473.976311,599616566757254892,130,-753,-812
5.686888,1776081473.976311,599616566757254892,150,-735,-806
5.691888,1776081473.976311,599616566757254892,163,-711,-791
5.696888,1776081473.976311,599616566757254892,173,-676,-800
5.701888,1776081473.976311,599616566757254892,174,-627,-817
5.706888,1776081473.976311,599616566757254892,179,-603,-845
5.711888,1776081473.976311,599616566757254892,187,-582,-860
5.716888,1776081473.976311,599616566757254892,233,-572,-868
5.721888,1776081473.976311,599616566757254892,289,-570,-866
5.726888,1776081473.976311,599616566757254892,337,-572,-860
5.731888,1776081473.976311,599616566757254892,378,-572,-821
5.736888,1776081473.976311,599616566757254892,383,-550,-808
5.741888,1776081473.976311,599616566757254892,386,-532,-812
5.746888,1776081473.976311,599616566757254892,418,-525,-844
5.751888,1776081473.976311,599616566757254892,457,-530,-881
5.756888,1776081473.976311,599616566757254892,451,-511,-770
5.761888,1776081473.976311,599616566757254892,384,-496,-587
5.766888,1776081473.976311,599616566757254892,259,-485,-442
5.771888,1776081473.976311,599616566757254892,140,-469,-373
5.776888,1776081473.976311,599616566757254892,65,-476,-379
5.781888,1776081473.976311,599616566757254892,50,-492,-481
5.786888,1776081473.976311,599616566757254892,80,-514,-539
5.791888,1776081473.976311,599616566757254892,106,-552,-540
5.796888,1776081473.976311,599616566757254892,119,-578,-516
5.801888,1776081473.976311,599616566757254892,117,-603,-551
5.806888,1776081473.976311,599616566757254892,97,-604,-574
5.811888,1776081473.976311,599616566757254892,87,-603,-627
5.813038,1776081474.156072,599616566933404782,71,-602,-646
5.818038,1776081474.156072,599616566933404782,39,-603,-635
5.823038,1776081474.156072,599616566933404782,6,-606,-586
5.828038,1776081474.156072,599616566933404782,-21,-614,-597
5.833038,1776081474.156072,599616566933404782,-47,-621,-646
5.838038,1776081474.156072,599616566933404782,-56,-639,-704
5.843038,1776081474.156072,599616566933404782,-52,-663,-758
5.848038,1776081474.156072,599616566933404782,-16,-684,-817
5.853038,1776081474.156072,599616566933404782,55,-689,-855
5.858038,1776081474.156072,599616566933404782,145,-699,-901
5.863038,1776081474.156072,599616566933404782,232,-704,-908
5.868038,1776081474.156072,599616566933404782,314,-701,-880
5.873038,1776081474.156072,599616566933404782,380,-708,-850
5.878038,1776081474.156072,599616566933404782,442,-725,-832
5.883038,1776081474.156072,599616566933404782,490,-741,-817
5.888038,1776081474.156072,599616566933404782,559,-750,-804
5.893038,1776081474.156072,599616566933404782,624,-756,-796
5.898038,1776081474.156072,599616566933404782,686,-761,-796
5.903038,1776081474.156072,599616566933404782,733,-763,-781
5.908038,1776081474.156072,599616566933404782,758,-764,-769
5.913038,1776081474.156072,599616566933404782,752,-761,-780
5.918038,1776081474.156072,599616566933404782,725,-735,-820
5.923038,1776081474.156072,599616566933404782,654,-698,-853
5.928038,1776081474.156072,599616566933404782,560,-656,-896
5.933038,1776081474.156072,599616566933404782,460,-613,-920
5.938038,1776081474.156072,599616566933404782,370,-553,-913
5.943038,1776081474.156072,599616566933404782,263,-503,-912
5.948038,1776081474.156072,599616566933404782,176,-480,-876
5.953038,1776081474.156072,599616566933404782,88,-475,-855
5.958038,1776081474.156072,599616566933404782,14,-487,-879
5.963038,1776081474.156072,599616566933404782,-26,-516,-872
5.968038,1776081474.156072,599616566933404782,-38,-563,-793
5.973038,1776081474.156072,599616566933404782,-33,-597,-750
5.978038,1776081474.156072,599616566933404782,-17,-602,-736
5.983038,1776081474.156072,599616566933404782,38,-606,-746
5.988038,1776081474.156072,599616566933404782,119,-588,-754
5.989157,1776081474.336785,599616567109524150,205,-557,-744
5.994157,1776081474.336785,599616567109524150,287,-526,-745
5.999157,1776081474.336785,599616567109524150,357,-498,-739
6.004157,1776081474.336785,599616567109524150,399,-484,-721
6.009157,1776081474.336785,599616567109524150,404,-476,-716
6.014157,1776081474.336785,599616567109524150,376,-478,-727
6.019157,1776081474.336785,599616567109524150,361,-479,-725
6.024157,1776081474.336785,599616567109524150,350,-470,-702
6.029157,1776081474.336785,599616567109524150,317,-442,-663
6.034157,1776081474.336785,599616567109524150,264,-410,-695
6.039157,1776081474.336785,599616567109524150,231,-395,-750
6.044157,1776081474.336785,599616567109524150,212,-396,-810
6.049157,1776081474.336785,599616567109524150,194,-421,-875
6.054157,1776081474.336785,599616567109524150,169,-477,-950
6.059157,1776081474.336785,599616567109524150,152,-542,-1037
6.064157,1776081474.336785,599616567109524150,130,-650,-1109
6.069157,1776081474.336785,599616567109524150,114,-753,-1139
6.074157,1776081474.336785,599616567109524150,101,-826,-1094
6.079157,1776081474.336785,599616567109524150,88,-868,-1033
6.084157,1776081474.336785,599616567109524150,84,-865,-974
6.089157,1776081474.336785,599616567109524150,84,-839,-943
6.094157,1776081474.336785,599616567109524150,88,-792,-929
6.099157,1776081474.336785,599616567109524150,107,-745,-923
6.104157,1776081474.336785,599616567109524150,148,-685,-945
6.109157,1776081474.336785,599616567109524150,186,-621,-961
6.114157,1776081474.336785,599616567109524150,211,-567,-983
6.119157,1776081474.336785,599616567109524150,246,-523,-992
6.124157,1776081474.336785,599616567109524150,278,-496,-984
6.129157,1776081474.336785,599616567109524150,320,-489,-962
6.134157,1776081474.336785,599616567109524150,342,-487,-967
6.139157,1776081474.336785,599616567109524150,327,-492,-958
6.144157,1776081474.336785,599616567109524150,345,-503,-969
6.149157,1776081474.336785,599616567109524150,356,-530,-981
6.154157,1776081474.336785,599616567109524150,366,-556,-953
6.159157,1776081474.336785,599616567109524150,397,-572,-902
6.164157,1776081474.336785,599616567109524150,429,-592,-833
6.165368,1776081474.471669,599616567285735112,433,-608,-799
6.170368,1776081474.471669,599616567285735112,408,-614,-808
6.175368,1776081474.471669,599616567285735112,358,-610,-821
6.180368,1776081474.471669,599616567285735112,276,-604,-844
6.185368,1776081474.471669,599616567285735112,195,-578,-870
6.190368,1776081474.471669,599616567285735112,109,-558,-898
6.195368,1776081474.471669,599616567285735112,51,-539,-904
6.200368,1776081474.471669,599616567285735112,14,-512,-902
6.205368,1776081474.471669,599616567285735112,-5,-491,-897
6.210368,1776081474.471669,599616567285735112,-12,-476,-901
6.215368,1776081474.471669,599616567285735112,-6,-463,-903
6.220368,1776081474.471669,599616567285735112,24,-459,-895
6.225368,1776081474.471669,599616567285735112,68,-453,-881
6.230368,1776081474.471669,599616567285735112,114,-445,-883
6.235368,1776081474.471669,599616567285735112,184,-441,-875
6.240368,1776081474.471669,599616567285735112,227,-424,-882
6.245368,1776081474.471669,599616567285735112,276,-407,-871
6.250368,1776081474.471669,599616567285735112,338,-397,-861
6.255368,1776081474.471669,599616567285735112,375,-391,-842
6.260368,1776081474.471669,599616567285735112,401,-386,-834
6.265368,1776081474.471669,599616567285735112,412,-387,-843
6.270368,1776081474.471669,599616567285735112,413,-408,-876
6.275368,1776081474.471669,599616567285735112,410,-429,-915
6.280368,1776081474.471669,599616567285735112,380,-449,-924
6.285368,1776081474.471669,599616567285735112,357,-466,-898
6.290368,1776081474.471669,599616567285735112,341,-474,-850
6.295368,1776081474.471669,599616567285735112,293,-481,-822
6.300368,1776081474.471669,599616567285735112,254,-490,-788
6.305368,1776081474.471669,599616567285735112,223,-493,-765
6.310368,1776081474.471669,599616567285735112,209,-493,-738
6.315368,1776081474.471669,599616567285735112,200,-496,-734
6.320368,1776081474.471669,599616567285735112,191,-501,-750
6.325368,1776081474.471669,599616567285735112,197,-508,-764
6.330368,1776081474.471669,599616567285735112,207,-521,-771
6.335368,1776081474.471669,599616567285735112,223,-525,-791
6.340368,1776081474.471669,599616567285735112,255,-534,-819
6.341518,1776081474.651349,599616567461884988,281,-547,-836
6.346518,1776081474.651349,599616567461884988,322,-548,-851
6.351518,1776081474.651349,599616567461884988,349,-553,-882
6.356518,1776081474.651349,599616567461884988,353,-569,-856
6.361518,1776081474.651349,599616567461884988,331,-594,-809
6.366518,1776081474.651349,599616567461884988,290,-614,-784
6.371518,1776081474.651349,599616567461884988,253,-626,-781
6.376518,1776081474.651349,599616567461884988,212,-627,-783
6.381518,1776081474.651349,599616567461884988,202,-617,-812
6.386518,1776081474.651349,599616567461884988,181,-616,-830
6.391518,1776081474.651349,599616567461884988,142,-615,-837
6.396518,1776081474.651349,599616567461884988,114,-608,-847
6.401518,1776081474.651349,599616567461884988,101,-602,-839
6.406518,1776081474.651349,599616567461884988,87,-606,-835
6.411518,1776081474.651349,599616567461884988,83,-615,-838
6.416518,1776081474.651349,599616567461884988,85,-622,-842
6.421518,1776081474.651349,599616567461884988,96,-622,-837
6.426518,1776081474.651349,599616567461884988,124,-633,-823
6.431518,1776081474.651349,599616567461884988,156,-646,-801
6.436518,1776081474.651349,599616567461884988,170,-656,-797
6.441518,1776081474.651349,599616567461884988,197,-662,-813
6.446518,1776081474.651349,599616567461884988,211,-659,-803
6.451518,1776081474.651349,599616567461884988,227,-648,-772
6.456518,1776081474.651349,599616567461884988,228,-647,-749
6.461518,1776081474.651349,599616567461884988,222,-651,-737
6.466518,1776081474.651349,599616567461884988,208,-645,-763
6.471518,1776081474.651349,599616567461884988,194,-626,-775
6.476518,1776081474.651349,599616567461884988,179,-615,-763
6.481518,1776081474.651349,599616567461884988,165,-605,-770
6.486518,1776081474.651349,599616567461884988,152,-584,-787
6.491518,1776081474.651349,599616567461884988,129,-569,-787
6.496518,1776081474.651349,599616567461884988,99,-563,-759
6.501518,1776081474.651349,599616567461884988,81,-567,-746
6.506518,1776081474.651349,599616567461884988,74,-581,-755
6.511518,1776081474.651349,599616567461884988,72,-597,-743
6.516518,1776081474.651349,599616567461884988,80,-616,-736
6.517638,1776081474.832249,599616567638004356,96,-636,-732
6.522638,1776081474.832249,599616567638004356,147,-670,-724
6.527638,1776081474.832249,599616567638004356,185,-684,-741
6.532638,1776081474.832249,599616567638004356,208,-697,-751
6.537638,1776081474.832249,599616567638004356,215,-705,-739
6.542638,1776081474.832249,599616567638004356,199,-711,-734
6.547638,1776081474.832249,599616567638004356,176,-700,-732
6.552638,1776081474.832249,599616567638004356,162,-698,-749
6.557638,1776081474.832249,599616567638004356,150,-688,-769
6.562638,1776081474.832249,599616567638004356,123,-671,-761
6.567638,1776081474.832249,599616567638004356,87,-652,-727
6.572638,1776081474.832249,599616567638004356,55,-635,-744
6.577638,1776081474.832249,599616567638004356,19,-623,-751
6.582638,1776081474.832249,599616567638004356,22,-613,-758
6.587638,1776081474.832249,599616567638004356,13,-591,-761
6.592638,1776081474.832249,599616567638004356,-7,-563,-741
6.597638,1776081474.832249,599616567638004356,-27,-545,-709
6.602638,1776081474.832249,599616567638004356,-42,-529,-702
6.607638,1776081474.832249,599616567638004356,-60,-522,-714
6.612638,1776081474.832249,599616567638004356,-71,-513,-711
6.617638,1776081474.832249,599616567638004356,-56,-527,-767
6.622638,1776081474.832249,599616567638004356,-29,-539,-780
6.627638,1776081474.832249,599616567638004356,25,-575,-813
6.632638,1776081474.832249,599616567638004356,82,-592,-822
6.637638,1776081474.832249,599616567638004356,122,-610,-806
6.642638,1776081474.832249,599616567638004356,171,-647,-795
6.647638,1776081474.832249,599616567638004356,197,-682,-760
6.652638,1776081474.832249,599616567638004356,207,-710,-732
6.657638,1776081474.832249,599616567638004356,217,-737,-704
6.662638,1776081474.832249,599616567638004356,223,-762,-683
6.667638,1776081474.832249,599616567638004356,228,-783,-702
6.672638,1776081474.832249,599616567638004356,251,-801,-712
6.677638,1776081474.832249,599616567638004356,282,-815,-734
6.682638,1776081474.832249,599616567638004356,310,-821,-753
6.687638,1776081474.832249,599616567638004356,344,-842,-766
6.692638,1776081474.832249,599616567638004356,352,-827,-770
6.693788,1776081475.011088,599616567814154262,348,-821,-753
6.698788,1776081475.011088,599616567814154262,346,-817,-759
6.703788,1776081475.011088,599616567814154262,323,-795,-771
6.708788,1776081475.011088,599616567814154262,292,-772,-808
6.713788,1776081475.011088,599616567814154262,264,-756,-835
6.718788,1776081475.011088,599616567814154262,239,-749,-873
6.723788,1776081475.011088,599616567814154262,218,-748,-953
6.728788,1776081475.011088,599616567814154262,198,-741,-1076
6.733788,1776081475.011088,599616567814154262,171,-735,-1199
6.738788,1776081475.011088,599616567814154262,142,-721,-1238
6.743788,1776081475.011088,599616567814154262,105,-706,-1142
6.748788,1776081475.011088,599616567814154262,64,-696,-1001
6.753788,1776081475.011088,599616567814154262,21,-707,-856
6.758788,1776081475.011088,599616567814154262,58,-727,-690
6.763788,1776081475.011088,599616567814154262,117,-718,-472
6.768788,1776081475.011088,599616567814154262,186,-705,-208
6.773787,1776081475.011088,599616567814154262,196,-639,-45
6.778787,1776081475.011088,599616567814154262,153,-554,93
6.783787,1776081475.011088,599616567814154262,130,-532,40
6.788787,1776081475.011088,599616567814154262,91,-530,-27
6.793787,1776081475.011088,599616567814154262,75,-569,-198
6.798787,1776081475.011088,599616567814154262,69,-601,-369
6.803787,1776081475.011088,599616567814154262,82,-642,-478
6.808788,1776081475.011088,599616567814154262,82,-667,-509
6.813788,1776081475.011088,599616567814154262,82,-725,-604
6.818788,1776081475.011088,599616567814154262,69,-759,-663
6.823788,1776081475.011088,599616567814154262,45,-792,-731
6.828788,1776081475.011088,599616567814154262,24,-828,-836
6.833788,1776081475.011088,599616567814154262,4,-854,-880
6.838788,1776081475.011088,599616567814154262,-17,-875,-847
6.843788,1776081475.011088,599616567814154262,-15,-892,-856
6.848788,1776081475.011088,599616567814154262,-16,-895,-917
6.853788,1776081475.011088,599616567814154262,-19,-883,-923
6.858788,1776081475.011088,599616567814154262,-16,-863,-925
6.863788,1776081475.011088,599616567814154262,-23,-844,-825
6.868788,1776081475.011088,599616567814154262,-24,-837,-773
6.869937,1776081475.192925,599616567990304158,-17,-841,-624
6.874937,1776081475.192925,599616567990304158,-1,-856,-552
6.879937,1776081475.192925,599616567990304158,25,-874,-474
6.884937,1776081475.192925,599616567990304158,67,-887,-431
6.889937,1776081475.192925,599616567990304158,107,-891,-442
6.894937,1776081475.192925,599616567990304158,157,-884,-536
6.899937,1776081475.192925,599616567990304158,193,-869,-705
6.904937,1776081475.192925,599616567990304158,229,-823,-801
6.909937,1776081475.192925,599616567990304158,279,-778,-779
6.914937,1776081475.192925,599616567990304158,320,-738,-725
6.919937,1776081475.192925,599616567990304158,312,-684,-716
6.924937,1776081475.192925,599616567990304158,284,-625,-710
6.929937,1776081475.192925,599616567990304158,256,-592,-700
6.934937,1776081475.192925,599616567990304158,216,-564,-709
6.939937,1776081475.192925,599616567990304158,182,-553,-721
6.944937,1776081475.192925,599616567990304158,128,-555,-718
6.949937,1776081475.192925,599616567990304158,76,-572,-713
6.954937,1776081475.192925,599616567990304158,21,-590,-668
6.959937,1776081475.192925,599616567990304158,-21,-616,-627
6.964937,1776081475.192925,599616567990304158,-66,-632,-631
6.969937,1776081475.192925,599616567990304158,-94,-629,-673
6.974937,1776081475.192925,599616567990304158,-99,-617,-718
6.979937,1776081475.192925,599616567990304158,-88,-600,-723
6.984937,1776081475.192925,599616567990304158,-57,-577,-719
6.989937,1776081475.192925,599616567990304158,-32,-558,-703
6.994937,1776081475.192925,599616567990304158,-20,-543,-689
6.999937,1776081475.192925,599616567990304158,-14,-539,-680
7.004937,1776081475.192925,599616567990304158,-1,-542,-681
7.009937,1776081475.192925,599616567990304158,12,-554,-707
7.014937,1776081475.192925,599616567990304158,31,-572,-749
7.019937,1776081475.192925,599616567990304158,41,-618,-846
7.024937,1776081475.192925,599616567990304158,29,-700,-940
7.029937,1776081475.192925,599616567990304158,3,-776,-983
7.034937,1776081475.192925,599616567990304158,-30,-862,-1017
7.039937,1776081475.192925,599616567990304158,-69,-920,-1019
7.044937,1776081475.192925,599616567990304158,-100,-949,-973
7.046057,1776081475.371696,599616568166423526,-136,-968,-938
7.051057,1776081475.371696,599616568166423526,-132,-973,-893
7.056057,1776081475.371696,599616568166423526,-91,-963,-844
7.061057,1776081475.371696,599616568166423526,-33,-941,-790
7.066057,1776081475.371696,599616568166423526,42,-900,-757
7.071057,1776081475.371696,599616568166423526,134,-850,-753
7.076057,1776081475.371696,599616568166423526,216,-781,-780
7.081057,1776081475.371696,599616568166423526,289,-715,-824
7.086057,1776081475.371696,599616568166423526,339,-639,-842
7.091057,1776081475.371696,599616568166423526,330,-584,-854
7.096057,1776081475.371696,599616568166423526,266,-539,-859
7.101057,1776081475.371696,599616568166423526,203,-513,-846
7.106057,1776081475.371696,599616568166423526,139,-501,-814
7.111057,1776081475.371696,599616568166423526,80,-504,-779
7.116057,1776081475.371696,599616568166423526,35,-511,-768
7.121057,1776081475.371696,599616568166423526,5,-527,-770
7.126057,1776081475.371696,599616568166423526,-18,-536,-781
7.131057,1776081475.371696,599616568166423526,-27,-547,-777
7.136057,1776081475.371696,599616568166423526,-37,-556,-787
7.141057,1776081475.371696,599616568166423526,-47,-568,-802
7.146057,1776081475.371696,599616568166423526,-53,-571,-821
7.151057,1776081475.371696,599616568166423526,-57,-582,-818
7.156057,1776081475.371696,599616568166423526,-56,-590,-804
7.161057,1776081475.371696,599616568166423526,-53,-598,-788
7.166057,1776081475.371696,599616568166423526,-55,-604,-783
7.171057,1776081475.371696,599616568166423526,-51,-604,-790
7.176057,1776081475.371696,599616568166423526,-48,-607,-812
7.181057,1776081475.371696,599616568166423526,-37,-610,-826
7.186057,1776081475.371696,599616568166423526,-29,-612,-826
7.191057,1776081475.371696,599616568166423526,-31,-617,-824
7.196057,1776081475.371696,599616568166423526,-30,-620,-828
7.201057,1776081475.371696,599616568166423526,-28,-623,-833
7.206057,1776081475.371696,599616568166423526,-22,-632,-844
7.211057,1776081475.371696,599616568166423526,-11,-648,-827
7.216057,1776081475.371696,599616568166423526,-3,-662,-780
7.221057,1776081475.371696,599616568166423526,1,-669,-786
7.222115,1776081475.553062,599616568342481884,0,-678,-801
7.227115,1776081475.553062,599616568342481884,2,-672,-811
7.232115,1776081475.553062,599616568342481884,7,-670,-816
7.237115,1776081475.553062,599616568342481884,2,-661,-827
7.242115,1776081475.553062,599616568342481884,1,-651,-828
7.247115,1776081475.553062,599616568342481884,7,-641,-836
7.252115,1776081475.553062,599616568342481884,4,-626,-834
7.257115,1776081475.553062,599616568342481884,-3,-618,-839
7.262115,1776081475.553062,599616568342481884,-4,-615,-814
7.267115,1776081475.553062,599616568342481884,-8,-609,-810
7.272115,1776081475.553062,599616568342481884,-12,-610,-802
7.277115,1776081475.553062,599616568342481884,-13,-602,-807
7.282115,1776081475.553062,599616568342481884,-14,-597,-819
7.287115,1776081475.553062,599616568342481884,-17,-596,-819
7.292115,1776081475.553062,599616568342481884,-21,-590,-805
7.297115,1776081475.553062,599616568342481884,-27,-585,-789
7.302115,1776081475.553062,599616568342481884,-28,-581,-778
7.307115,1776081475.553062,599616568342481884,-35,-591,-797
7.312115,1776081475.553062,599616568342481884,-37,-597,-807
7.317115,1776081475.553062,599616568342481884,-35,-595,-819
7.322115,1776081475.553062,599616568342481884,-28,-603,-811
7.327115,1776081475.553062,599616568342481884,-23,-607,-763
7.332115,1776081475.553062,599616568342481884,-22,-598,-761
7.337115,1776081475.553062,599616568342481884,-18,-582,-755
7.342115,1776081475.553062,599616568342481884,-17,-586,-764
7.347115,1776081475.553062,599616568342481884,-16,-603,-768
7.352115,1776081475.553062,599616568342481884,-17,-612,-761
7.357115,1776081475.553062,599616568342481884,-16,-618,-777
7.362115,1776081475.553062,599616568342481884,-16,-639,-762
7.367115,1776081475.553062,599616568342481884,-14,-659,-744
7.372115,1776081475.553062,599616568342481884,-21,-678,-754
7.377115,1776081475.553062,599616568342481884,-25,-706,-762
7.382115,1776081475.553062,599616568342481884,-28,-735,-764
7.387115,1776081475.553062,599616568342481884,-30,-750,-771
7.392115,1776081475.553062,599616568342481884,-31,-746,-791
7.397115,1776081475.553062,599616568342481884,-33,-737,-810
7.398265,1776081475.731509,599616568518631774,-34,-713,-827
7.403265,1776081475.731509,599616568518631774,-26,-690,-834
7.408265,1776081475.731509,599616568518631774,-21,-666,-835
7.413265,1776081475.731509,599616568518631774,-14,-648,-845
7.418265,1776081475.731509,599616568518631774,-3,-656,-828
7.423265,1776081475.731509,599616568518631774,10,-660,-791
7.428265,1776081475.731509,599616568518631774,7,-649,-781
7.433265,1776081475.731509,599616568518631774,-9,-635,-774
7.438265,1776081475.731509,599616568518631774,-29,-629,-779
7.443265,1776081475.731509,599616568518631774,-51,-630,-777
7.448265,1776081475.731509,599616568518631774,-77,-634,-774
7.453265,1776081475.731509,599616568518631774,-89,-635,-781
7.458265,1776081475.731509,599616568518631774,-95,-634,-789
7.463265,1776081475.731509,599616568518631774,-86,-625,-797
7.468265,1776081475.731509,599616568518631774,-72,-616,-772
7.473265,1776081475.731509,599616568518631774,-48,-612,-779
7.478265,1776081475.731509,599616568518631774,-40,-609,-808
7.483265,1776081475.731509,599616568518631774,-30,-614,-810
7.488265,1776081475.731509,599616568518631774,-26,-613,-788
7.493265,1776081475.731509,599616568518631774,-19,-615,-784
7.498265,1776081475.731509,599616568518631774,-11,-617,-787
7.503265,1776081475.731509,599616568518631774,-8,-634,-779
7.508265,1776081475.731509,599616568518631774,-18,-667,-822
7.513265,1776081475.731509,599616568518631774,-16,-703,-810
7.518265,1776081475.731509,599616568518631774,-12,-722,-760
7.523265,1776081475.731509,599616568518631774,-18,-732,-746
7.528265,1776081475.731509,599616568518631774,-21,-741,-758
7.533265,1776081475.731509,599616568518631774,-25,-747,-779
7.538265,1776081475.731509,599616568518631774,-35,-746,-785
7.543265,1776081475.731509,599616568518631774,-48,-734,-789
7.548265,1776081475.731509,599616568518631774,-58,-711,-792
7.553265,1776081475.731509,599616568518631774,-56,-688,-791
7.558265,1776081475.731509,599616568518631774,-53,-657,-768
7.563265,1776081475.731509,599616568518631774,-50,-633,-759
7.568265,1776081475.731509,599616568518631774,-42,-614,-754
7.573265,1776081475.731509,599616568518631774,-32,-604,-751
7.574445,1776081475.911726,599616568694812198,-29,-604,-747
7.579445,1776081475.911726,599616568694812198,-38,-607,-755
7.584445,1776081475.911726,599616568694812198,-37,-616,-767
7.589445,1776081475.911726,599616568694812198,-33,-636,-774
7.594445,1776081475.911726,599616568694812198,-29,-659,-766
7.599445,1776081475.911726,599616568694812198,-25,-669,-757
7.604445,1776081475.911726,599616568694812198,-21,-675,-771
7.609445,1776081475.911726,599616568694812198,-24,-677,-795
7.614445,1776081475.911726,599616568694812198,-26,-672,-803
7.619445,1776081475.911726,599616568694812198,-31,-663,-801
7.624445,1776081475.911726,599616568694812198,-37,-658,-804
7.629445,1776081475.911726,599616568694812198,-40,-648,-814
7.634445,1776081475.911726,599616568694812198,-56,-645,-827
7.639445,1776081475.911726,599616568694812198,-69,-648,-829
7.644445,1776081475.911726,599616568694812198,-78,-642,-826
7.649445,1776081475.911726,599616568694812198,-80,-641,-808
7.654445,1776081475.911726,599616568694812198,-78,-638,-795
7.659445,1776081475.911726,599616568694812198,-66,-632,-778
7.664445,1776081475.911726,599616568694812198,-48,-631,-767
7.669445,1776081475.911726,599616568694812198,-40,-630,-763
7.674445,1776081475.911726,599616568694812198,-33,-638,-759
7.679445,1776081475.911726,599616568694812198,-33,-652,-757
7.684445,1776081475.911726,599616568694812198,-33,-662,-753
7.689445,1776081475.911726,599616568694812198,-37,-685,-748
7.694445,1776081475.911726,599616568694812198,-39,-696,-734
7.699445,1776081475.911726,599616568694812198,-48,-698,-730
7.704445,1776081475.911726,599616568694812198,-54,-696,-731
7.709445,1776081475.911726,599616568694812198,-72,-694,-749
7.714445,1776081475.911726,599616568694812198,-79,-690,-776
7.719445,1776081475.911726,599616568694812198,-84,-684,-784
7.724445,1776081475.911726,599616568694812198,-83,-667,-775
7.729445,1776081475.911726,599616568694812198,-77,-654,-773
7.734445,1776081475.911726,599616568694812198,-71,-650,-788
7.739445,1776081475.911726,599616568694812198,-61,-657,-791
7.744445,1776081475.911726,599616568694812198,-54,-661,-788
7.749445,1776081475.911726,599616568694812198,-44,-654,-786
7.750626,1776081476.092143,599616568870992612,-34,-660,-783
7.755626,1776081476.092143,599616568870992612,-29,-665,-780
7.760626,1776081476.092143,599616568870992612,-26,-669,-771
7.765626,1776081476.092143,599616568870992612,-25,-673,-757
7.770626,1776081476.092143,599616568870992612,-27,-678,-755
7.775626,1776081476.092143,599616568870992612,-32,-687,-755
7.780626,1776081476.092143,599616568870992612,-41,-694,-755
7.785626,1776081476.092143,599616568870992612,-47,-693,-759
7.790626,1776081476.092143,599616568870992612,-54,-684,-775
7.795626,1776081476.092143,599616568870992612,-69,-671,-791
7.800626,1776081476.092143,599616568870992612,-82,-661,-791
7.805626,1776081476.092143,599616568870992612,-92,-638,-803
7.810626,1776081476.092143,599616568870992612,-101,-624,-818
7.815626,1776081476.092143,599616568870992612,-109,-626,-800
7.820626,1776081476.092143,599616568870992612,-104,-631,-796
7.825626,1776081476.092143,599616568870992612,-99,-627,-802
7.830626,1776081476.092143,599616568870992612,-89,-621,-811
7.835626,1776081476.092143,599616568870992612,-83,-630,-826
7.840626,1776081476.092143,599616568870992612,-80,-658,-811
7.845626,1776081476.092143,599616568870992612,-79,-684,-813
7.850626,1776081476.092143,599616568870992612,-85,-697,-809
7.855626,1776081476.092143,599616568870992612,-78,-700,-805
7.860626,1776081476.092143,599616568870992612,-66,-697,-804
7.865626,1776081476.092143,599616568870992612,-46,-689,-809
7.870626,1776081476.092143,599616568870992612,-32,-677,-800
7.875626,1776081476.092143,599616568870992612,-20,-664,-786
7.880626,1776081476.092143,599616568870992612,-11,-658,-776
7.885626,1776081476.092143,599616568870992612,-2,-651,-764
7.890626,1776081476.092143,599616568870992612,5,-649,-758
7.895626,1776081476.092143,599616568870992612,3,-645,-766
7.900626,1776081476.092143,599616568870992612,-2,-634,-764
7.905626,1776081476.092143,599616568870992612,-15,-629,-758
7.910626,1776081476.092143,599616568870992612,-26,-623,-762
7.915626,1776081476.092143,599616568870992612,-43,-625,-765
7.920626,1776081476.092143,599616568870992612,-63,-632,-765
7.925626,1776081476.092143,599616568870992612,-77,-637,-773
7.926837,1776081476.271606,599616569047203554,-87,-638,-766
7.931837,1776081476.271606,599616569047203554,-84,-639,-773
7.936837,1776081476.271606,599616569047203554,-82,-639,-787
7.941837,1776081476.271606,599616569047203554,-78,-638,-804
7.946837,1776081476.271606,599616569047203554,-73,-646,-815
7.951837,1776081476.271606,599616569047203554,-58,-652,-812
7.956837,1776081476.271606,599616569047203554,-49,-649,-794
7.961837,1776081476.271606,599616569047203554,-37,-657,-782
7.966837,1776081476.271606,599616569047203554,-31,-647,-768
7.971837,1776081476.271606,599616569047203554,-26,-640,-751
7.976837,1776081476.271606,599616569047203554,-21,-644,-746
7.981837,1776081476.271606,599616569047203554,-18,-648,-757
7.986837,1776081476.271606,599616569047203554,-14,-656,-774
7.991837,1776081476.271606,599616569047203554,-21,-658,-755
7.996837,1776081476.271606,599616569047203554,-38,-658,-784
8.001837,1776081476.271606,599616569047203554,-49,-663,-815
8.006837,1776081476.271606,599616569047203554,-53,-679,-807
8.011837,1776081476.271606,599616569047203554,-62,-685,-796
8.016837,1776081476.271606,599616569047203554,-71,-686,-784
8.021837,1776081476.271606,599616569047203554,-81,-682,-777
8.026837,1776081476.271606,599616569047203554,-87,-677,-793
8.031837,1776081476.271606,599616569047203554,-77,-669,-802
8.036837,1776081476.271606,599616569047203554,-58,-667,-793
8.041837,1776081476.271606,599616569047203554,-36,-651,-783
8.046837,1776081476.271606,599616569047203554,-23,-643,-762
8.051837,1776081476.271606,599616569047203554,-3,-638,-754
8.056837,1776081476.271606,599616569047203554,14,-644,-749
8.061837,1776081476.271606,599616569047203554,24,-646,-750
8.066837,1776081476.271606,599616569047203554,28,-662,-745
8.071837,1776081476.271606,599616569047203554,26,-677,-742
8.076837,1776081476.271606,599616569047203554,18,-690,-738
8.081837,1776081476.271606,599616569047203554,4,-692,-743
8.086837,1776081476.271606,599616569047203554,-16,-700,-744
8.091837,1776081476.271606,599616569047203554,-28,-703,-744
8.096837,1776081476.271606,599616569047203554,-44,-702,-753
8.101837,1776081476.271606,599616569047203554,-57,-696,-760
8.103048,1776081476.497890,599616569223414486,-76,-693,-764
8.108048,1776081476.497890,599616569223414486,-85,-682,-775
8.113048,1776081476.497890,599616569223414486,-89,-678,-794
8.118048,1776081476.497890,599616569223414486,-87,-676,-815
8.123048,1776081476.497890,599616569223414486,-82,-670,-812
8.128048,1776081476.497890,599616569223414486,-77,-669,-805
8.133048,1776081476.497890,599616569223414486,-72,-669,-793
8.138048,1776081476.497890,599616569223414486,-64,-667,-795
8.143048,1776081476.497890,599616569223414486,-57,-667,-780
8.148048,1776081476.497890,599616569223414486,-43,-666,-775
8.153048,1776081476.497890,599616569223414486,-34,-665,-779
8.158048,1776081476.497890,599616569223414486,-22,-658,-770
8.163048,1776081476.497890,599616569223414486,-15,-649,-762
8.168048,1776081476.497890,599616569223414486,-8,-646,-753
8.173048,1776081476.497890,599616569223414486,-5,-645,-748
8.178048,1776081476.497890,599616569223414486,-13,-641,-755
8.183048,1776081476.497890,599616569223414486,-17,-641,-756
8.188048,1776081476.497890,599616569223414486,-22,-646,-761
8.193048,1776081476.497890,599616569223414486,-21,-655,-764
8.198048,1776081476.497890,599616569223414486,-25,-662,-766
8.203048,1776081476.497890,599616569223414486,-25,-666,-769
8.208048,1776081476.497890,599616569223414486,-27,-676,-779
8.213048,1776081476.497890,599616569223414486,-25,-679,-774
8.218048,1776081476.497890,599616569223414486,-26,-676,-767
8.223048,1776081476.497890,599616569223414486,-24,-670,-758
8.228048,1776081476.497890,599616569223414486,-22,-663,-752
8.233048,1776081476.497890,599616569223414486,-21,-655,-761
8.238048,1776081476.497890,599616569223414486,-22,-647,-768
8.243048,1776081476.497890,599616569223414486,-22,-650,-789
8.248048,1776081476.497890,599616569223414486,-22,-656,-777
8.253048,1776081476.497890,599616569223414486,-20,-673,-766
8.258048,1776081476.497890,599616569223414486,-23,-682,-758
8.263048,1776081476.497890,599616569223414486,-28,-685,-762
8.268048,1776081476.497890,599616569223414486,-40,-685,-760
8.273048,1776081476.497890,599616569223414486,-54,-679,-765
8.278048,1776081476.497890,599616569223414486,-71,-664,-763
8.279259,1776081476.586765,599616569399625418,-77,-661,-767
8.284259,1776081476.586765,599616569399625418,-76,-661,-787
8.289259,1776081476.586765,599616569399625418,-76,-672,-801
8.294259,1776081476.586765,599616569399625418,-59,-661,-785
8.299259,1776081476.586765,599616569399625418,-31,-630,-790
8.304259,1776081476.586765,599616569399625418,-9,-637,-788
8.309259,1776081476.586765,599616569399625418,1,-651,-765
8.314259,1776081476.586765,599616569399625418,15,-668,-746
8.319259,1776081476.586765,599616569399625418,19,-678,-753
8.324259,1776081476.586765,599616569399625418,21,-678,-765
8.329259,1776081476.586765,599616569399625418,12,-695,-773
8.334259,1776081476.586765,599616569399625418,5,-709,-788
8.339259,1776081476.586765,599616569399625418,-5,-720,-782
8.344259,1776081476.586765,599616569399625418,-19,-726,-791
8.349259,1776081476.586765,599616569399625418,-35,-725,-786
8.354259,1776081476.586765,599616569399625418,-49,-711,-771
8.359259,1776081476.586765,599616569399625418,-68,-700,-758
8.364259,1776081476.586765,599616569399625418,-82,-689,-759
8.369259,1776081476.586765,599616569399625418,-91,-689,-769
8.374259,1776081476.586765,599616569399625418,-101,-676,-773
8.379259,1776081476.586765,599616569399625418,-103,-667,-761
8.384259,1776081476.586765,599616569399625418,-102,-652,-757
8.389259,1776081476.586765,599616569399625418,-98,-635,-760
8.394259,1776081476.586765,599616569399625418,-90,-626,-761
8.399259,1776081476.586765,599616569399625418,-78,-629,-769
8.404259,1776081476.586765,599616569399625418,-63,-636,-774
8.409259,1776081476.586765,599616569399625418,-47,-646,-777
8.414259,1776081476.586765,599616569399625418,-32,-658,-782
8.419259,1776081476.586765,599616569399625418,-23,-669,-774
8.424259,1776081476.586765,599616569399625418,-19,-670,-765
8.429259,1776081476.586765,599616569399625418,-14,-674,-761
8.434259,1776081476.586765,599616569399625418,-17,-673,-764
8.439259,1776081476.586765,599616569399625418,-20,-674,-761
8.444259,1776081476.586765,599616569399625418,-21,-666,-760
8.449259,1776081476.586765,599616569399625418,-21,-661,-761
8.454259,1776081476.586765,599616569399625418,-21,-655,-755
8.455470,1776081476.766555,599616569575836350,-17,-653,-749
8.460470,1776081476.766555,599616569575836350,-13,-651,-753
8.465470,1776081476.766555,599616569575836350,-15,-650,-758
8.470470,1776081476.766555,599616569575836350,-12,-660,-766
8.475470,1776081476.766555,599616569575836350,-12,-664,-755
8.480470,1776081476.766555,599616569575836350,-23,-672,-743
8.485470,1776081476.766555,599616569575836350,-38,-673,-770
8.490470,1776081476.766555,599616569575836350,-43,-670,-791
8.495470,1776081476.766555,599616569575836350,-45,-685,-800
8.500470,1776081476.766555,599616569575836350,-45,-693,-785
8.505470,1776081476.766555,599616569575836350,-42,-692,-780
8.510470,1776081476.766555,599616569575836350,-40,-688,-787
8.515470,1776081476.766555,599616569575836350,-44,-682,-792
8.520470,1776081476.766555,599616569575836350,-42,-676,-798
8.525470,1776081476.766555,599616569575836350,-33,-666,-797
8.530470,1776081476.766555,599616569575836350,-29,-660,-794
8.535470,1776081476.766555,599616569575836350,-26,-658,-784
8.540470,1776081476.766555,599616569575836350,-25,-654,-771
8.545470,1776081476.766555,599616569575836350,-23,-654,-759
8.550470,1776081476.766555,599616569575836350,-23,-664,-747
8.555470,1776081476.766555,599616569575836350,-23,-662,-746
8.560470,1776081476.766555,599616569575836350,-28,-662,-748
8.565470,1776081476.766555,599616569575836350,-34,-665,-760
8.570470,1776081476.766555,599616569575836350,-39,-663,-770
8.575470,1776081476.766555,599616569575836350,-41,-674,-778
8.580470,1776081476.766555,599616569575836350,-40,-675,-772
8.585470,1776081476.766555,599616569575836350,-37,-677,-776
8.590470,1776081476.766555,599616569575836350,-36,-675,-782
8.595470,1776081476.766555,599616569575836350,-33,-673,-779
8.600470,1776081476.766555,599616569575836350,-31,-677,-781
8.605470,1776081476.766555,599616569575836350,-29,-676,-784
8.610470,1776081476.766555,599616569575836350,-32,-678,-785
8.615470,1776081476.766555,599616569575836350,-30,-669,-772
8.620470,1776081476.766555,599616569575836350,-29,-654,-761
8.625470,1776081476.766555,599616569575836350,-29,-642,-754
8.630470,1776081476.766555,599616569575836350,-27,-629,-753
8.631680,1776081477.036707,599616569752047282,-25,-626,-767
8.636680,1776081477.036707,599616569752047282,-23,-634,-771
8.641680,1776081477.036707,599616569752047282,-19,-638,-778
8.646680,1776081477.036707,599616569752047282,-22,-645,-784
8.651680,1776081477.036707,599616569752047282,-21,-655,-786
8.656680,1776081477.036707,599616569752047282,-26,-662,-790
8.661680,1776081477.036707,599616569752047282,-31,-671,-786
8.666680,1776081477.036707,599616569752047282,-31,-677,-779
8.671680,1776081477.036707,599616569752047282,-32,-677,-779
8.676680,1776081477.036707,599616569752047282,-37,-677,-775
8.681680,1776081477.036707,599616569752047282,-36,-675,-765
8.686680,1776081477.036707,599616569752047282,-34,-662,-755
8.691680,1776081477.036707,599616569752047282,-32,-651,-753
8.696680,1776081477.036707,599616569752047282,-32,-638,-756
8.701680,1776081477.036707,599616569752047282,-30,-637,-763
8.706680,1776081477.036707,599616569752047282,-31,-640,-761
8.711680,1776081477.036707,599616569752047282,-28,-652,-769
8.716680,1776081477.036707,599616569752047282,-27,-670,-778
8.721680,1776081477.036707,599616569752047282,-27,-680,-768
8.726680,1776081477.036707,599616569752047282,-29,-681,-770
8.731680,1776081477.036707,599616569752047282,-28,-685,-780
8.736680,1776081477.036707,599616569752047282,-27,-686,-787
8.741680,1776081477.036707,599616569752047282,-28,-687,-789
8.746680,1776081477.036707,599616569752047282,-28,-689,-785
8.751680,1776081477.036707,599616569752047282,-30,-691,-794
8.756680,1776081477.036707,599616569752047282,-31,-697,-797
8.761680,1776081477.036707,599616569752047282,-35,-697,-802
8.766680,1776081477.036707,599616569752047282,-40,-694,-793
8.771680,1776081477.036707,599616569752047282,-44,-688,-775
8.776680,1776081477.036707,599616569752047282,-47,-688,-762
8.781680,1776081477.036707,599616569752047282,-47,-680,-770
8.786680,1776081477.036707,599616569752047282,-49,-670,-761
8.791680,1776081477.036707,599616569752047282,-42,-640,-764
8.796680,1776081477.036707,599616569752047282,-31,-622,-769
8.801680,1776081477.036707,599616569752047282,-30,-635,-748
8.806680,1776081477.036707,599616569752047282,-31,-649,-735
8.807830,1776081477.127055,599616569928197158,-26,-647,-721
8.812830,1776081477.127055,599616569928197158,-27,-631,-730
8.817830,1776081477.127055,599616569928197158,-25,-637,-748
8.822830,1776081477.127055,599616569928197158,-21,-661,-769
8.827830,1776081477.127055,599616569928197158,-4,-686,-789
8.832830,1776081477.127055,599616569928197158,13,-700,-783
8.837830,1776081477.127055,599616569928197158,18,-701,-781
8.842830,1776081477.127055,599616569928197158,16,-699,-763
8.847830,1776081477.127055,599616569928197158,12,-686,-742
8.852830,1776081477.127055,599616569928197158,11,-661,-743
8.857830,1776081477.127055,599616569928197158,3,-641,-765
8.862830,1776081477.127055,599616569928197158,-7,-638,-794
8.867830,1776081477.127055,599616569928197158,-21,-647,-818
8.872830,1776081477.127055,599616569928197158,-31,-653,-819
8.877830,1776081477.127055,599616569928197158,-52,-640,-818
8.882830,1776081477.127055,599616569928197158,-56,-638,-828
8.887830,1776081477.127055,599616569928197158,-50,-644,-838
8.892830,1776081477.127055,599616569928197158,-49,-659,-836
8.897830,1776081477.127055,599616569928197158,-45,-680,-831
8.902830,1776081477.127055,599616569928197158,-47,-699,-825
8.907830,1776081477.127055,599616569928197158,-42,-719,-812
8.912830,1776081477.127055,599616569928197158,-37,-728,-785
8.917830,1776081477.127055,599616569928197158,-31,-720,-750
8.922830,1776081477.127055,599616569928197158,-26,-711,-727
8.927830,1776081477.127055,599616569928197158,-21,-701,-709
8.932830,1776081477.127055,599616569928197158,-13,-689,-694
8.937830,1776081477.127055,599616569928197158,-11,-681,-687
8.942830,1776081477.127055,599616569928197158,-6,-667,-687
8.947830,1776081477.127055,599616569928197158,-3,-660,-686
8.952830,1776081477.127055,599616569928197158,4,-655,-688
8.957830,1776081477.127055,599616569928197158,13,-658,-701
8.962830,1776081477.127055,599616569928197158,19,-662,-710
8.967830,1776081477.127055,599616569928197158,28,-674,-715
8.972830,1776081477.127055,599616569928197158,28,-679,-706
8.977830,1776081477.127055,599616569928197158,22,-692,-711
8.982830,1776081477.127055,599616569928197158,20,-687,-734
8.983980,1776081477.306945,599616570104347054,12,-681,-744
8.988980,1776081477.306945,599616570104347054,1,-684,-765
8.993980,1776081477.306945,599616570104347054,-2,-679,-792
8.998980,1776081477.306945,599616570104347054,0,-688,-808
9.003980,1776081477.306945,599616570104347054,7,-682,-815
9.008980,1776081477.306945,599616570104347054,11,-674,-815
9.013980,1776081477.306945,599616570104347054,16,-664,-828
9.018980,1776081477.306945,599616570104347054,22,-654,-851
9.023980,1776081477.306945,599616570104347054,33,-653,-877
9.028980,1776081477.306945,599616570104347054,51,-656,-865
9.033980,1776081477.306945,599616570104347054,54,-664,-847
9.038980,1776081477.306945,599616570104347054,43,-657,-823
9.043980,1776081477.306945,599616570104347054,25,-656,-806
9.048980,1776081477.306945,599616570104347054,5,-646,-792
9.053980,1776081477.306945,599616570104347054,-18,-630,-781
9.058980,1776081477.306945,599616570104347054,-26,-622,-766
9.063980,1776081477.306945,599616570104347054,-29,-614,-770
9.068980,1776081477.306945,599616570104347054,-26,-609,-786
9.073980,1776081477.306945,599616570104347054,-24,-610,-809
9.078980,1776081477.306945,599616570104347054,-15,-615,-831
9.083980,1776081477.306945,599616570104347054,6,-627,-840
9.088980,1776081477.306945,599616570104347054,23,-650,-839
9.093980,1776081477.306945,599616570104347054,43,-650,-820
9.098980,1776081477.306945,599616570104347054,68,-642,-782
9.103980,1776081477.306945,599616570104347054,92,-625,-756
9.108980,1776081477.306945,599616570104347054,125,-617,-771
9.113980,1776081477.306945,599616570104347054,158,-617,-813
9.118980,1776081477.306945,599616570104347054,182,-615,-862
9.123980,1776081477.306945,599616570104347054,200,-616,-904
9.128980,1776081477.306945,599616570104347054,208,-617,-928
9.133980,1776081477.306945,599616570104347054,207,-614,-906
9.138980,1776081477.306945,599616570104347054,199,-613,-840
9.143980,1776081477.306945,599616570104347054,175,-616,-823
9.148980,1776081477.306945,599616570104347054,155,-628,-820
9.153980,1776081477.306945,599616570104347054,131,-655,-793
9.158980,1776081477.306945,599616570104347054,105,-675,-792
9.160100,1776081477.488532,599616570280466422,92,-683,-803
9.165100,1776081477.488532,599616570280466422,81,-671,-826
9.170100,1776081477.488532,599616570280466422,75,-638,-828
9.175100,1776081477.488532,599616570280466422,77,-616,-817
9.180100,1776081477.488532,599616570280466422,76,-608,-791
9.185100,1776081477.488532,599616570280466422,72,-596,-792
9.190100,1776081477.488532,599616570280466422,63,-577,-801
9.195100,1776081477.488532,599616570280466422,70,-564,-828
9.200100,1776081477.488532,599616570280466422,82,-553,-840
9.205100,1776081477.488532,599616570280466422,97,-550,-849
9.210100,1776081477.488532,599616570280466422,117,-551,-849
9.215100,1776081477.488532,599616570280466422,134,-562,-834
9.220100,1776081477.488532,599616570280466422,132,-570,-830
9.225100,1776081477.488532,599616570280466422,129,-577,-824
9.230100,1776081477.488532,599616570280466422,108,-581,-825
9.235100,1776081477.488532,599616570280466422,87,-578,-836
9.240100,1776081477.488532,599616570280466422,83,-564,-839
9.245100,1776081477.488532,599616570280466422,86,-551,-819
9.250100,1776081477.488532,599616570280466422,104,-525,-791
9.255100,1776081477.488532,599616570280466422,128,-507,-776
9.260100,1776081477.488532,599616570280466422,153,-497,-780
9.265100,1776081477.488532,599616570280466422,185,-493,-785
9.270100,1776081477.488532,599616570280466422,207,-494,-763
9.275100,1776081477.488532,599616570280466422,223,-502,-727
9.280100,1776081477.488532,599616570280466422,242,-523,-695
9.285100,1776081477.488532,599616570280466422,253,-551,-667
9.290100,1776081477.488532,599616570280466422,273,-581,-661
9.295100,1776081477.488532,599616570280466422,329,-610,-606
9.300100,1776081477.488532,599616570280466422,341,-659,-527
9.305100,1776081477.488532,599616570280466422,334,-726,-485
9.310100,1776081477.488532,599616570280466422,344,-761,-464
9.315100,1776081477.488532,599616570280466422,345,-793,-385
9.320100,1776081477.488532,599616570280466422,203,-803,-359
9.325100,1776081477.488532,599616570280466422,31,-808,-613
9.330100,1776081477.488532,599616570280466422,28,-760,-974
9.335100,1776081477.488532,599616570280466422,161,-689,-1169
9.336219,1776081477.667115,599616570456585800,314,-631,-1212
9.341219,1776081477.667115,599616570456585800,341,-608,-1197
9.346219,1776081477.667115,599616570456585800,358,-601,-1138
9.351219,1776081477.667115,599616570456585800,357,-604,-1050
9.356219,1776081477.667115,599616570456585800,317,-606,-969
9.361219,1776081477.667115,599616570456585800,225,-598,-938
9.366219,1776081477.667115,599616570456585800,237,-592,-878
9.371219,1776081477.667115,599616570456585800,295,-594,-822
9.376219,1776081477.667115,599616570456585800,330,-583,-763
9.381219,1776081477.667115,599616570456585800,348,-561,-731
9.386219,1776081477.667115,599616570456585800,367,-534,-709
9.391219,1776081477.667115,599616570456585800,387,-523,-704
9.396219,1776081477.667115,599616570456585800,365,-496,-708
9.401219,1776081477.667115,599616570456585800,354,-494,-684
9.406219,1776081477.667115,599616570456585800,345,-469,-690
9.411219,1776081477.667115,599616570456585800,337,-438,-688
9.416219,1776081477.667115,599616570456585800,291,-394,-692
9.421219,1776081477.667115,599616570456585800,203,-390,-706
9.426219,1776081477.667115,599616570456585800,179,-430,-698
9.431219,1776081477.667115,599616570456585800,229,-484,-701
9.436219,1776081477.667115,599616570456585800,314,-532,-695
9.441219,1776081477.667115,599616570456585800,351,-553,-678
9.446219,1776081477.667115,599616570456585800,301,-550,-698
9.451219,1776081477.667115,599616570456585800,217,-543,-690
9.456219,1776081477.667115,599616570456585800,104,-561,-687
9.461219,1776081477.667115,599616570456585800,117,-592,-709
9.466219,1776081477.667115,599616570456585800,214,-604,-666
9.471219,1776081477.667115,599616570456585800,365,-603,-604
9.476219,1776081477.667115,599616570456585800,440,-623,-585
9.481219,1776081477.667115,599616570456585800,411,-650,-619
9.486219,1776081477.667115,599616570456585800,437,-688,-634
9.491219,1776081477.667115,599616570456585800,489,-724,-522
9.496219,1776081477.667115,599616570456585800,398,-727,-662
9.501219,1776081477.667115,599616570456585800,246,-662,-807
9.506219,1776081477.667115,599616570456585800,223,-594,-899
9.511219,1776081477.667115,599616570456585800,326,-565,-896
9.512338,1776081477.890697,599616570632705178,419,-606,-803
9.517338,1776081477.890697,599616570632705178,597,-662,-777
9.522338,1776081477.890697,599616570632705178,636,-701,-741
9.527338,1776081477.890697,599616570632705178,599,-754,-694
9.532338,1776081477.890697,599616570632705178,492,-813,-683
9.537338,1776081477.890697,599616570632705178,345,-816,-765
9.542338,1776081477.890697,599616570632705178,234,-801,-833
9.547338,1776081477.890697,599616570632705178,228,-792,-782
9.552338,1776081477.890697,599616570632705178,310,-802,-709
9.557338,1776081477.890697,599616570632705178,404,-820,-678
9.562338,1776081477.890697,599616570632705178,452,-829,-655
9.567338,1776081477.890697,599616570632705178,481,-831,-594
