time,t_wall,t_device_ns,x,y,z
0.000000,1776080966.154351,599616058888692460,-30,-342,-978
0.005000,1776080966.154351,599616058888692460,-28,-340,-975
0.010000,1776080966.154351,599616058888692460,-28,-339,-973
0.015000,1776080966.154351,599616058888692460,-29,-336,-976
0.020000,1776080966.154351,599616058888692460,-28,-332,-975
0.025000,1776080966.154351,599616058888692460,-28,-331,-978
0.030000,1776080966.154351,599616058888692460,-29,-331,-981
0.035000,1776080966.154351,599616058888692460,-29,-334,-980
0.040000,1776080966.154351,599616058888692460,-30,-338,-982
0.045000,1776080966.154351,599616058888692460,-32,-334,-980
0.050000,1776080966.154351,599616058888692460,-33,-329,-974
0.055000,1776080966.154351,599616058888692460,-32,-331,-974
0.060000,1776080966.154351,599616058888692460,-35,-340,-974
0.065000,1776080966.154351,599616058888692460,-36,-338,-980
0.070000,1776080966.154351,599616058888692460,-34,-336,-978
0.075000,1776080966.154351,599616058888692460,-36,-334,-980
0.080000,1776080966.154351,599616058888692460,-35,-337,-976
0.085000,1776080966.154351,599616058888692460,-33,-334,-977
0.090000,1776080966.154351,599616058888692460,-32,-336,-979
0.095000,1776080966.154351,599616058888692460,-32,-333,-986
0.100000,1776080966.154351,599616058888692460,-31,-328,-984
0.105000,1776080966.154351,599616058888692460,-30,-334,-980
0.110000,1776080966.154351,599616058888692460,-30,-335,-980
0.115000,1776080966.154351,599616058888692460,-28,-338,-980
0.120000,1776080966.154351,599616058888692460,-34,-341,-979
0.125000,1776080966.154351,599616058888692460,-31,-332,-973
0.130000,1776080966.154351,599616058888692460,-28,-326,-996
0.135000,1776080966.154351,599616058888692460,-31,-317,-997
0.140000,1776080966.154351,599616058888692460,-18,-326,-975
0.145000,1776080966.154351,599616058888692460,-16,-342,-972
0.150000,1776080966.154351,599616058888692460,-25,-332,-983
0.155000,1776080966.154351,599616058888692460,-20,-341,-969
0.160000,1776080966.154351,599616058888692460,-24,-351,-957
0.165000,1776080966.154351,599616058888692460,-38,-361,-958
0.170000,1776080966.154351,599616058888692460,-33,-339,-972
0.175000,1776080966.154351,599616058888692460,-29,-330,-996
0.176119,1776080966.288452,599616059064811828,-24,-328,-1006
0.181119,1776080966.288452,599616059064811828,-25,-330,-1002
0.186119,1776080966.288452,599616059064811828,-24,-339,-1001
0.191119,1776080966.288452,599616059064811828,-26,-341,-991
0.196119,1776080966.288452,599616059064811828,-30,-348,-980
0.201119,1776080966.288452,599616059064811828,-36,-349,-973
0.206119,1776080966.288452,599616059064811828,-40,-344,-973
0.211119,1776080966.288452,599616059064811828,-41,-338,-976
0.216119,1776080966.288452,599616059064811828,-35,-335,-983
0.221119,1776080966.288452,599616059064811828,-32,-337,-987
0.226119,1776080966.288452,599616059064811828,-32,-339,-978
0.231119,1776080966.288452,599616059064811828,-31,-342,-977
0.236119,1776080966.288452,599616059064811828,-33,-351,-972
0.241119,1776080966.288452,599616059064811828,-35,-346,-973
0.246119,1776080966.288452,599616059064811828,-33,-342,-975
0.251119,1776080966.288452,599616059064811828,-37,-342,-975
0.256119,1776080966.288452,599616059064811828,-33,-340,-980
0.261119,1776080966.288452,599616059064811828,-31,-336,-980
0.266119,1776080966.288452,599616059064811828,-28,-335,-977
0.271119,1776080966.288452,599616059064811828,-30,-339,-970
0.276119,1776080966.288452,599616059064811828,-30,-336,-969
0.281119,1776080966.288452,599616059064811828,-29,-339,-977
0.286119,1776080966.288452,599616059064811828,-27,-334,-976
0.291119,1776080966.288452,599616059064811828,-28,-330,-978
0.296119,1776080966.288452,599616059064811828,-27,-334,-980
0.301119,1776080966.288452,599616059064811828,-26,-331,-982
0.306119,1776080966.288452,599616059064811828,-26,-334,-983
0.311119,1776080966.288452,599616059064811828,-28,-337,-981
0.316119,1776080966.288452,599616059064811828,-27,-336,-979
0.321119,1776080966.288452,599616059064811828,-21,-341,-977
0.326119,1776080966.288452,599616059064811828,-43,-357,-1006
0.331119,1776080966.288452,599616059064811828,-66,-343,-964
0.336119,1776080966.288452,599616059064811828,-25,-307,-988
0.341119,1776080966.288452,599616059064811828,-27,-300,-1021
0.346119,1776080966.288452,599616059064811828,-29,-319,-982
0.351119,1776080966.288452,599616059064811828,-24,-337,-960
0.352239,1776080966.469418,599616059240931206,-32,-336,-972
0.357239,1776080966.469418,599616059240931206,-23,-342,-982
0.362239,1776080966.469418,599616059240931206,-23,-339,-976
0.367239,1776080966.469418,599616059240931206,-26,-344,-982
0.372239,1776080966.469418,599616059240931206,-30,-343,-985
0.377239,1776080966.469418,599616059240931206,-28,-337,-988
0.382239,1776080966.469418,599616059240931206,-28,-340,-984
0.387239,1776080966.469418,599616059240931206,-30,-334,-974
0.392239,1776080966.469418,599616059240931206,-28,-337,-966
0.397239,1776080966.469418,599616059240931206,-28,-340,-968
0.402239,1776080966.469418,599616059240931206,-28,-342,-980
0.407239,1776080966.469418,599616059240931206,-28,-345,-978
0.412239,1776080966.469418,599616059240931206,-30,-342,-985
0.417239,1776080966.469418,599616059240931206,-31,-335,-984
0.422239,1776080966.469418,599616059240931206,-30,-331,-982
0.427239,1776080966.469418,599616059240931206,-28,-330,-978
0.432239,1776080966.469418,599616059240931206,-26,-328,-971
0.437239,1776080966.469418,599616059240931206,-26,-331,-974
0.442239,1776080966.469418,599616059240931206,-26,-327,-975
0.447239,1776080966.469418,599616059240931206,-30,-328,-980
0.452239,1776080966.469418,599616059240931206,-31,-330,-985
0.457239,1776080966.469418,599616059240931206,-32,-335,-985
0.462239,1776080966.469418,599616059240931206,-31,-332,-988
0.467239,1776080966.469418,599616059240931206,-32,-335,-985
0.472239,1776080966.469418,599616059240931206,-30,-333,-984
0.477239,1776080966.469418,599616059240931206,-32,-339,-980
0.482239,1776080966.469418,599616059240931206,-30,-339,-977
0.487239,1776080966.469418,599616059240931206,-29,-344,-977
0.492239,1776080966.469418,599616059240931206,-28,-343,-974
0.497239,1776080966.469418,599616059240931206,-28,-339,-972
0.502239,1776080966.469418,599616059240931206,-27,-338,-980
0.507239,1776080966.469418,599616059240931206,-27,-339,-979
0.512239,1776080966.469418,599616059240931206,-26,-340,-983
0.517239,1776080966.469418,599616059240931206,-26,-338,-984
0.522239,1776080966.469418,599616059240931206,-27,-340,-981
0.527239,1776080966.469418,599616059240931206,-28,-341,-976
0.528328,1776080966.737084,599616059417020092,-31,-341,-982
0.533328,1776080966.737084,599616059417020092,-31,-336,-983
0.538328,1776080966.737084,599616059417020092,-30,-337,-979
0.543328,1776080966.737084,599616059417020092,-30,-332,-975
0.548328,1776080966.737084,599616059417020092,-31,-329,-976
0.553328,1776080966.737084,599616059417020092,-29,-336,-974
0.558328,1776080966.737084,599616059417020092,-29,-335,-972
0.563328,1776080966.737084,599616059417020092,-32,-336,-976
0.568328,1776080966.737084,599616059417020092,-33,-336,-984
0.573328,1776080966.737084,599616059417020092,-38,-335,-990
0.578328,1776080966.737084,599616059417020092,-38,-337,-992
0.583328,1776080966.737084,599616059417020092,-35,-333,-988
0.588328,1776080966.737084,599616059417020092,-35,-332,-982
0.593328,1776080966.737084,599616059417020092,-35,-330,-974
0.598328,1776080966.737084,599616059417020092,-30,-329,-986
0.603328,1776080966.737084,599616059417020092,-31,-319,-995
0.608328,1776080966.737084,599616059417020092,-22,-330,-984
0.613328,1776080966.737084,599616059417020092,-16,-343,-968
0.618327,1776080966.737084,599616059417020092,-29,-340,-982
0.623327,1776080966.737084,599616059417020092,-30,-346,-972
0.628327,1776080966.737084,599616059417020092,-28,-360,-955
0.633327,1776080966.737084,599616059417020092,-36,-366,-958
0.638327,1776080966.737084,599616059417020092,-38,-352,-961
0.643328,1776080966.737084,599616059417020092,-29,-332,-975
0.648328,1776080966.737084,599616059417020092,-21,-320,-995
0.653328,1776080966.737084,599616059417020092,-18,-323,-999
0.658328,1776080966.737084,599616059417020092,-18,-332,-993
0.663328,1776080966.737084,599616059417020092,-23,-340,-987
0.668328,1776080966.737084,599616059417020092,-27,-347,-986
0.673328,1776080966.737084,599616059417020092,-37,-354,-974
0.678328,1776080966.737084,599616059417020092,-43,-354,-978
0.683328,1776080966.737084,599616059417020092,-46,-346,-980
0.688328,1776080966.737084,599616059417020092,-44,-343,-981
0.693328,1776080966.737084,599616059417020092,-41,-335,-987
0.698328,1776080966.737084,599616059417020092,-39,-332,-982
0.703328,1776080966.737084,599616059417020092,-36,-333,-982
0.704447,1776080966.827860,599616059593139444,-34,-338,-982
0.709447,1776080966.827860,599616059593139444,-36,-345,-975
0.714447,1776080966.827860,599616059593139444,-34,-344,-979
0.719447,1776080966.827860,599616059593139444,-34,-338,-976
0.724447,1776080966.827860,599616059593139444,-32,-348,-982
0.729447,1776080966.827860,599616059593139444,-30,-341,-972
0.734447,1776080966.827860,599616059593139444,-31,-347,-969
0.739447,1776080966.827860,599616059593139444,-28,-339,-970
0.744447,1776080966.827860,599616059593139444,-28,-337,-978
0.749447,1776080966.827860,599616059593139444,-26,-336,-977
0.754447,1776080966.827860,599616059593139444,-28,-335,-976
0.759447,1776080966.827860,599616059593139444,-27,-334,-978
0.764447,1776080966.827860,599616059593139444,-27,-341,-975
0.769447,1776080966.827860,599616059593139444,-30,-338,-978
0.774447,1776080966.827860,599616059593139444,-29,-333,-982
0.779447,1776080966.827860,599616059593139444,-31,-338,-983
0.784447,1776080966.827860,599616059593139444,-28,-339,-979
0.789447,1776080966.827860,599616059593139444,-25,-344,-973
0.794447,1776080966.827860,599616059593139444,-49,-355,-1006
0.799447,1776080966.827860,599616059593139444,-78,-341,-972
0.804447,1776080966.827860,599616059593139444,-32,-300,-998
0.809447,1776080966.827860,599616059593139444,-27,-301,-1025
0.814447,1776080966.827860,599616059593139444,-26,-328,-984
0.819447,1776080966.827860,599616059593139444,-26,-346,-974
0.824447,1776080966.827860,599616059593139444,-26,-350,-967
0.829447,1776080966.827860,599616059593139444,-21,-345,-977
0.834447,1776080966.827860,599616059593139444,-23,-334,-981
0.839447,1776080966.827860,599616059593139444,-25,-336,-974
0.844447,1776080966.827860,599616059593139444,-27,-330,-976
0.849447,1776080966.827860,599616059593139444,-29,-333,-975
0.854447,1776080966.827860,599616059593139444,-28,-332,-978
0.859447,1776080966.827860,599616059593139444,-34,-340,-973
0.864447,1776080966.827860,599616059593139444,-34,-337,-969
0.869447,1776080966.827860,599616059593139444,-36,-349,-962
0.874447,1776080966.827860,599616059593139444,-33,-347,-971
0.879447,1776080966.827860,599616059593139444,-35,-342,-982
0.880536,1776080967.054524,599616059769228330,-36,-338,-985
0.885536,1776080967.054524,599616059769228330,-34,-333,-990
0.890536,1776080967.054524,599616059769228330,-36,-335,-988
0.895536,1776080967.054524,599616059769228330,-33,-334,-986
0.900536,1776080967.054524,599616059769228330,-31,-337,-981
0.905536,1776080967.054524,599616059769228330,-31,-333,-980
0.910536,1776080967.054524,599616059769228330,-34,-337,-978
0.915536,1776080967.054524,599616059769228330,-37,-338,-978
0.920536,1776080967.054524,599616059769228330,-34,-338,-975
0.925536,1776080967.054524,599616059769228330,-33,-342,-976
0.930536,1776080967.054524,599616059769228330,-32,-338,-985
0.935536,1776080967.054524,599616059769228330,-32,-339,-984
0.940536,1776080967.054524,599616059769228330,-33,-339,-982
0.945536,1776080967.054524,599616059769228330,-29,-342,-975
0.950536,1776080967.054524,599616059769228330,-29,-339,-977
0.955536,1776080967.054524,599616059769228330,-28,-339,-980
0.960536,1776080967.054524,599616059769228330,-30,-341,-982
0.965536,1776080967.054524,599616059769228330,-30,-337,-974
0.970536,1776080967.054524,599616059769228330,-30,-331,-980
0.975536,1776080967.054524,599616059769228330,-32,-328,-979
0.980536,1776080967.054524,599616059769228330,-31,-327,-983
0.985536,1776080967.054524,599616059769228330,-32,-332,-983
0.990536,1776080967.054524,599616059769228330,-32,-336,-980
0.995536,1776080967.054524,599616059769228330,-31,-335,-981
1.000536,1776080967.054524,599616059769228330,-34,-336,-974
1.005536,1776080967.054524,599616059769228330,-33,-338,-979
1.010536,1776080967.054524,599616059769228330,-33,-332,-981
1.015536,1776080967.054524,599616059769228330,-34,-336,-986
1.020536,1776080967.054524,599616059769228330,-33,-336,-985
1.025536,1776080967.054524,599616059769228330,-32,-339,-988
1.030536,1776080967.054524,599616059769228330,-30,-337,-988
1.035536,1776080967.054524,599616059769228330,-29,-338,-989
1.040536,1776080967.054524,599616059769228330,-27,-338,-985
1.045536,1776080967.054524,599616059769228330,-26,-338,-988
1.050536,1776080967.054524,599616059769228330,-28,-342,-983
1.055536,1776080967.054524,599616059769228330,-29,-345,-981
1.056625,1776080967.189126,599616059945317190,-34,-345,-980
1.061625,1776080967.189126,599616059945317190,-33,-346,-970
1.066625,1776080967.189126,599616059945317190,-32,-339,-971
1.071625,1776080967.189126,599616059945317190,-34,-334,-970
1.076625,1776080967.189126,599616059945317190,-36,-336,-983
1.081625,1776080967.189126,599616059945317190,-39,-328,-983
1.086625,1776080967.189126,599616059945317190,-39,-326,-983
1.091625,1776080967.189126,599616059945317190,-37,-330,-982
1.096625,1776080967.189126,599616059945317190,-34,-330,-983
1.101625,1776080967.189126,599616059945317190,-32,-340,-980
1.106625,1776080967.189126,599616059945317190,-32,-339,-975
1.111625,1776080967.189126,599616059945317190,-29,-337,-986
1.116625,1776080967.189126,599616059945317190,-35,-333,-986
1.121625,1776080967.189126,599616059945317190,-39,-333,-984
1.126625,1776080967.189126,599616059945317190,-30,-323,-984
1.131625,1776080967.189126,599616059945317190,-21,-320,-997
1.136625,1776080967.189126,599616059945317190,-27,-342,-990
1.141625,1776080967.189126,599616059945317190,-40,-350,-976
1.146625,1776080967.189126,599616059945317190,-31,-346,-955
1.151625,1776080967.189126,599616059945317190,-34,-359,-950
1.156625,1776080967.189126,599616059945317190,-35,-357,-955
1.161625,1776080967.189126,599616059945317190,-27,-325,-981
1.166625,1776080967.189126,599616059945317190,-22,-320,-993
1.171625,1776080967.189126,599616059945317190,-14,-322,-1000
1.176625,1776080967.189126,599616059945317190,-14,-329,-1004
1.181625,1776080967.189126,599616059945317190,-18,-344,-1002
1.186625,1776080967.189126,599616059945317190,-27,-343,-989
1.191625,1776080967.189126,599616059945317190,-37,-349,-977
1.196625,1776080967.189126,599616059945317190,-46,-355,-972
1.201625,1776080967.189126,599616059945317190,-48,-348,-985
1.206625,1776080967.189126,599616059945317190,-49,-340,-990
1.211625,1776080967.189126,599616059945317190,-48,-338,-990
1.216625,1776080967.189126,599616059945317190,-43,-333,-988
1.221625,1776080967.189126,599616059945317190,-41,-341,-977
1.226625,1776080967.189126,599616059945317190,-35,-340,-980
1.231625,1776080967.189126,599616059945317190,-35,-343,-969
1.232714,1776080967.367801,599616060121406050,-33,-343,-973
1.237714,1776080967.367801,599616060121406050,-33,-340,-981
1.242714,1776080967.367801,599616060121406050,-30,-339,-980
1.247714,1776080967.367801,599616060121406050,-30,-335,-977
1.252714,1776080967.367801,599616060121406050,-30,-337,-974
1.257714,1776080967.367801,599616060121406050,-28,-336,-971
1.262714,1776080967.367801,599616060121406050,-27,-335,-971
1.267714,1776080967.367801,599616060121406050,-27,-330,-974
1.272714,1776080967.367801,599616060121406050,-26,-336,-969
1.277714,1776080967.367801,599616060121406050,-26,-332,-975
1.282714,1776080967.367801,599616060121406050,-26,-335,-978
1.287714,1776080967.367801,599616060121406050,-29,-338,-979
1.292714,1776080967.367801,599616060121406050,-31,-339,-984
1.297714,1776080967.367801,599616060121406050,-31,-341,-982
1.302714,1776080967.367801,599616060121406050,-32,-339,-981
1.307714,1776080967.367801,599616060121406050,-28,-348,-979
1.312714,1776080967.367801,599616060121406050,-22,-350,-977
1.317713,1776080967.367801,599616060121406050,-45,-362,-1006
1.322713,1776080967.367801,599616060121406050,-80,-344,-976
1.327713,1776080967.367801,599616060121406050,-36,-306,-999
1.332713,1776080967.367801,599616060121406050,-27,-311,-1015
1.337713,1776080967.367801,599616060121406050,-26,-332,-979
1.342713,1776080967.367801,599616060121406050,-26,-337,-981
1.347714,1776080967.367801,599616060121406050,-26,-336,-977
1.352714,1776080967.367801,599616060121406050,-24,-337,-976
1.357714,1776080967.367801,599616060121406050,-25,-330,-985
1.362714,1776080967.367801,599616060121406050,-26,-327,-979
1.367714,1776080967.367801,599616060121406050,-29,-328,-980
1.372714,1776080967.367801,599616060121406050,-30,-327,-984
1.377714,1776080967.367801,599616060121406050,-30,-329,-986
1.382714,1776080967.367801,599616060121406050,-34,-331,-979
1.387714,1776080967.367801,599616060121406050,-33,-329,-979
1.392714,1776080967.367801,599616060121406050,-34,-334,-973
1.397714,1776080967.367801,599616060121406050,-36,-339,-976
1.402714,1776080967.367801,599616060121406050,-36,-342,-981
1.407714,1776080967.367801,599616060121406050,-38,-338,-983
1.408802,1776080967.502224,599616060297494910,-38,-339,-993
1.413802,1776080967.502224,599616060297494910,-38,-343,-987
1.418802,1776080967.502224,599616060297494910,-35,-339,-981
1.423802,1776080967.502224,599616060297494910,-31,-337,-979
1.428802,1776080967.502224,599616060297494910,-28,-336,-982
1.433802,1776080967.502224,599616060297494910,-29,-333,-988
1.438802,1776080967.502224,599616060297494910,-26,-334,-984
1.443802,1776080967.502224,599616060297494910,-30,-340,-986
1.448802,1776080967.502224,599616060297494910,-31,-335,-977
1.453802,1776080967.502224,599616060297494910,-28,-344,-974
1.458802,1776080967.502224,599616060297494910,-29,-339,-975
1.463802,1776080967.502224,599616060297494910,-31,-340,-983
1.468802,1776080967.502224,599616060297494910,-31,-340,-975
1.473802,1776080967.502224,599616060297494910,-30,-337,-978
1.478802,1776080967.502224,599616060297494910,-31,-338,-978
1.483802,1776080967.502224,599616060297494910,-32,-341,-973
1.488802,1776080967.502224,599616060297494910,-34,-336,-976
1.493802,1776080967.502224,599616060297494910,-31,-333,-981
1.498802,1776080967.502224,599616060297494910,-32,-333,-987
1.503802,1776080967.502224,599616060297494910,-32,-336,-988
1.508802,1776080967.502224,599616060297494910,-32,-336,-987
1.513802,1776080967.502224,599616060297494910,-33,-339,-990
1.518802,1776080967.502224,599616060297494910,-32,-340,-985
1.523802,1776080967.502224,599616060297494910,-33,-344,-984
1.528802,1776080967.502224,599616060297494910,-30,-336,-987
1.533802,1776080967.502224,599616060297494910,-31,-337,-982
1.538802,1776080967.502224,599616060297494910,-31,-334,-982
1.543802,1776080967.502224,599616060297494910,-30,-342,-983
1.548802,1776080967.502224,599616060297494910,-31,-338,-982
1.553802,1776080967.502224,599616060297494910,-30,-335,-978
1.558802,1776080967.502224,599616060297494910,-29,-334,-980
1.563802,1776080967.502224,599616060297494910,-31,-332,-974
1.568802,1776080967.502224,599616060297494910,-33,-330,-980
1.573802,1776080967.502224,599616060297494910,-34,-332,-975
1.578802,1776080967.502224,599616060297494910,-34,-327,-982
1.583802,1776080967.502224,599616060297494910,-35,-333,-981
1.584922,1776080967.682668,599616060473614262,-35,-341,-979
1.589922,1776080967.682668,599616060473614262,-36,-343,-978
1.594922,1776080967.682668,599616060473614262,-32,-342,-978
1.599922,1776080967.682668,599616060473614262,-31,-337,-982
1.604922,1776080967.682668,599616060473614262,-32,-339,-983
1.609922,1776080967.682668,599616060473614262,-30,-335,-982
1.614922,1776080967.682668,599616060473614262,-30,-337,-985
1.619922,1776080967.682668,599616060473614262,-32,-336,-987
1.624922,1776080967.682668,599616060473614262,-29,-341,-982
1.629922,1776080967.682668,599616060473614262,-31,-344,-981
1.634922,1776080967.682668,599616060473614262,-32,-339,-977
1.639922,1776080967.682668,599616060473614262,-31,-340,-979
1.644922,1776080967.682668,599616060473614262,-31,-341,-980
1.649922,1776080967.682668,599616060473614262,-32,-336,-978
1.654922,1776080967.682668,599616060473614262,-33,-336,-981
1.659922,1776080967.682668,599616060473614262,-33,-336,-978
1.664922,1776080967.682668,599616060473614262,-31,-327,-979
1.669922,1776080967.682668,599616060473614262,-29,-332,-985
1.674922,1776080967.682668,599616060473614262,-31,-331,-986
1.679922,1776080967.682668,599616060473614262,-30,-337,-985
1.684922,1776080967.682668,599616060473614262,-28,-338,-984
1.689922,1776080967.682668,599616060473614262,-31,-332,-986
1.694922,1776080967.682668,599616060473614262,-32,-333,-985
1.699922,1776080967.682668,599616060473614262,-31,-334,-982
1.704922,1776080967.682668,599616060473614262,-31,-335,-982
1.709922,1776080967.682668,599616060473614262,-32,-334,-983
1.714922,1776080967.682668,599616060473614262,-30,-331,-985
1.719922,1776080967.682668,599616060473614262,-30,-337,-980
1.724922,1776080967.682668,599616060473614262,-35,-342,-972
1.729922,1776080967.682668,599616060473614262,-33,-342,-970
1.734922,1776080967.682668,599616060473614262,-32,-339,-970
1.739922,1776080967.682668,599616060473614262,-31,-332,-977
1.744922,1776080967.682668,599616060473614262,-30,-336,-974
1.749922,1776080967.682668,599616060473614262,-29,-338,-969
1.754922,1776080967.682668,599616060473614262,-30,-337,-965
1.759922,1776080967.682668,599616060473614262,-33,-334,-974
1.760980,1776080967.861936,599616060649672620,-41,-333,-982
1.765980,1776080967.861936,599616060649672620,-48,-335,-988
1.770980,1776080967.861936,599616060649672620,-44,-336,-994
1.775980,1776080967.861936,599616060649672620,-38,-335,-993
1.780980,1776080967.861936,599616060649672620,-32,-335,-984
1.785980,1776080967.861936,599616060649672620,-28,-335,-981
1.790980,1776080967.861936,599616060649672620,-29,-339,-985
1.795980,1776080967.861936,599616060649672620,-35,-338,-977
1.800980,1776080967.861936,599616060649672620,-43,-337,-986
1.805980,1776080967.861936,599616060649672620,-32,-333,-981
1.810980,1776080967.861936,599616060649672620,-19,-332,-992
1.815980,1776080967.861936,599616060649672620,-24,-336,-989
1.820980,1776080967.861936,599616060649672620,-30,-335,-981
1.825980,1776080967.861936,599616060649672620,-26,-344,-959
1.830980,1776080967.861936,599616060649672620,-32,-358,-950
1.835980,1776080967.861936,599616060649672620,-31,-345,-955
1.840980,1776080967.861936,599616060649672620,-24,-323,-980
1.845980,1776080967.861936,599616060649672620,-21,-321,-996
1.850980,1776080967.861936,599616060649672620,-23,-323,-1005
1.855980,1776080967.861936,599616060649672620,-24,-331,-1002
1.860980,1776080967.861936,599616060649672620,-32,-343,-993
1.865980,1776080967.861936,599616060649672620,-40,-347,-990
1.870980,1776080967.861936,599616060649672620,-46,-353,-981
1.875980,1776080967.861936,599616060649672620,-50,-350,-982
1.880980,1776080967.861936,599616060649672620,-53,-350,-981
1.885980,1776080967.861936,599616060649672620,-49,-349,-981
1.890980,1776080967.861936,599616060649672620,-45,-345,-983
1.895980,1776080967.861936,599616060649672620,-41,-340,-981
1.900980,1776080967.861936,599616060649672620,-38,-344,-979
1.905980,1776080967.861936,599616060649672620,-35,-336,-975
1.910980,1776080967.861936,599616060649672620,-35,-340,-972
1.915980,1776080967.861936,599616060649672620,-32,-337,-980
1.920980,1776080967.861936,599616060649672620,-32,-335,-982
1.925980,1776080967.861936,599616060649672620,-30,-332,-978
1.930980,1776080967.861936,599616060649672620,-33,-336,-977
1.935980,1776080967.861936,599616060649672620,-33,-334,-978
1.937038,1776080968.043421,599616060825730962,-33,-335,-981
1.942038,1776080968.043421,599616060825730962,-30,-326,-975
1.947038,1776080968.043421,599616060825730962,-29,-333,-968
1.952038,1776080968.043421,599616060825730962,-28,-330,-973
1.957038,1776080968.043421,599616060825730962,-25,-330,-976
1.962038,1776080968.043421,599616060825730962,-24,-336,-979
1.967038,1776080968.043421,599616060825730962,-25,-333,-978
1.972038,1776080968.043421,599616060825730962,-27,-332,-982
1.977038,1776080968.043421,599616060825730962,-29,-336,-984
1.982038,1776080968.043421,599616060825730962,-31,-341,-982
1.987038,1776080968.043421,599616060825730962,-28,-340,-979
1.992038,1776080968.043421,599616060825730962,-26,-341,-982
1.997038,1776080968.043421,599616060825730962,-35,-348,-991
2.002038,1776080968.043421,599616060825730962,-87,-341,-980
2.007038,1776080968.043421,599616060825730962,-47,-305,-1000
2.012038,1776080968.043421,599616060825730962,-29,-305,-1010
2.017038,1776080968.043421,599616060825730962,-26,-330,-979
2.022038,1776080968.043421,599616060825730962,-32,-342,-981
2.027038,1776080968.043421,599616060825730962,-30,-345,-985
2.032038,1776080968.043421,599616060825730962,-24,-342,-980
2.037038,1776080968.043421,599616060825730962,-26,-341,-985
2.042038,1776080968.043421,599616060825730962,-27,-334,-979
2.047038,1776080968.043421,599616060825730962,-28,-335,-980
2.052038,1776080968.043421,599616060825730962,-27,-335,-977
2.057038,1776080968.043421,599616060825730962,-26,-334,-983
2.062038,1776080968.043421,599616060825730962,-24,-332,-977
2.067038,1776080968.043421,599616060825730962,-30,-337,-972
2.072038,1776080968.043421,599616060825730962,-36,-342,-968
2.077038,1776080968.043421,599616060825730962,-40,-337,-969
2.082038,1776080968.043421,599616060825730962,-39,-337,-979
2.087038,1776080968.043421,599616060825730962,-38,-337,-989
2.092038,1776080968.043421,599616060825730962,-41,-333,-990
2.097038,1776080968.043421,599616060825730962,-42,-337,-988
2.102038,1776080968.043421,599616060825730962,-40,-336,-986
2.107038,1776080968.043421,599616060825730962,-38,-334,-981
2.112038,1776080968.043421,599616060825730962,-31,-339,-980
2.113036,1776080968.223399,599616061001728284,-29,-336,-985
2.118036,1776080968.223399,599616061001728284,-30,-331,-986
2.123036,1776080968.223399,599616061001728284,-30,-333,-979
2.128036,1776080968.223399,599616061001728284,-30,-336,-975
2.133036,1776080968.223399,599616061001728284,-31,-333,-975
2.138036,1776080968.223399,599616061001728284,-35,-337,-979
2.143036,1776080968.223399,599616061001728284,-33,-338,-979
2.148036,1776080968.223399,599616061001728284,-32,-335,-981
2.153036,1776080968.223399,599616061001728284,-32,-334,-984
2.158036,1776080968.223399,599616061001728284,-34,-335,-978
2.163036,1776080968.223399,599616061001728284,-33,-331,-982
2.168036,1776080968.223399,599616061001728284,-32,-329,-975
2.173036,1776080968.223399,599616061001728284,-31,-336,-975
2.178036,1776080968.223399,599616061001728284,-32,-333,-980
2.183036,1776080968.223399,599616061001728284,-32,-330,-984
2.188036,1776080968.223399,599616061001728284,-32,-332,-986
2.193036,1776080968.223399,599616061001728284,-31,-339,-987
2.198036,1776080968.223399,599616061001728284,-32,-337,-985
2.203036,1776080968.223399,599616061001728284,-30,-340,-984
2.208036,1776080968.223399,599616061001728284,-32,-338,-982
2.213036,1776080968.223399,599616061001728284,-32,-331,-984
2.218036,1776080968.223399,599616061001728284,-34,-331,-993
2.223036,1776080968.223399,599616061001728284,-32,-334,-991
2.228036,1776080968.223399,599616061001728284,-32,-338,-984
2.233036,1776080968.223399,599616061001728284,-32,-341,-982
2.238036,1776080968.223399,599616061001728284,-31,-338,-983
2.243036,1776080968.223399,599616061001728284,-35,-341,-980
2.248036,1776080968.223399,599616061001728284,-38,-338,-983
2.253036,1776080968.223399,599616061001728284,-36,-340,-984
2.258036,1776080968.223399,599616061001728284,-34,-333,-977
2.263036,1776080968.223399,599616061001728284,-33,-334,-981
2.268036,1776080968.223399,599616061001728284,-33,-333,-981
2.273036,1776080968.223399,599616061001728284,-30,-334,-983
2.278036,1776080968.223399,599616061001728284,-30,-333,-984
2.283036,1776080968.223399,599616061001728284,-31,-334,-976
2.288036,1776080968.223399,599616061001728284,-33,-332,-976
2.288972,1776080968.449358,599616061177664534,-32,-333,-976
2.293972,1776080968.449358,599616061177664534,-32,-331,-979
2.298972,1776080968.449358,599616061177664534,-33,-330,-982
2.303972,1776080968.449358,599616061177664534,-33,-334,-980
2.308972,1776080968.449358,599616061177664534,-34,-336,-980
2.313972,1776080968.449358,599616061177664534,-32,-336,-983
2.318972,1776080968.449358,599616061177664534,-34,-334,-982
2.323972,1776080968.449358,599616061177664534,-34,-331,-981
2.328972,1776080968.449358,599616061177664534,-35,-329,-988
2.333972,1776080968.449358,599616061177664534,-30,-331,-989
2.338972,1776080968.449358,599616061177664534,-32,-332,-988
2.343972,1776080968.449358,599616061177664534,-32,-339,-984
2.348972,1776080968.449358,599616061177664534,-32,-342,-984
2.353972,1776080968.449358,599616061177664534,-32,-344,-982
2.358972,1776080968.449358,599616061177664534,-30,-342,-985
2.363972,1776080968.449358,599616061177664534,-28,-338,-992
2.368972,1776080968.449358,599616061177664534,-30,-342,-989
2.373972,1776080968.449358,599616061177664534,-30,-336,-983
2.378972,1776080968.449358,599616061177664534,-29,-334,-978
2.383972,1776080968.449358,599616061177664534,-28,-334,-976
2.388972,1776080968.449358,599616061177664534,-30,-332,-980
2.393972,1776080968.449358,599616061177664534,-30,-329,-981
2.398972,1776080968.449358,599616061177664534,-32,-333,-974
2.403972,1776080968.449358,599616061177664534,-34,-339,-975
2.408972,1776080968.449358,599616061177664534,-35,-340,-976
2.413972,1776080968.449358,599616061177664534,-40,-332,-975
2.418972,1776080968.449358,599616061177664534,-39,-327,-981
2.423972,1776080968.449358,599616061177664534,-37,-327,-978
2.428972,1776080968.449358,599616061177664534,-33,-324,-985
2.433972,1776080968.449358,599616061177664534,-35,-322,-987
2.438972,1776080968.449358,599616061177664534,-35,-319,-989
2.443972,1776080968.449358,599616061177664534,-35,-324,-989
2.448972,1776080968.449358,599616061177664534,-34,-331,-984
2.453972,1776080968.449358,599616061177664534,-33,-339,-986
2.458972,1776080968.449358,599616061177664534,-34,-343,-986
2.463972,1776080968.449358,599616061177664534,-34,-342,-988
2.465061,1776080968.583240,599616061353753408,-35,-340,-990
2.470061,1776080968.583240,599616061353753408,-33,-331,-989
2.475061,1776080968.583240,599616061353753408,-32,-327,-985
2.480061,1776080968.583240,599616061353753408,-29,-330,-981
2.485061,1776080968.583240,599616061353753408,-28,-334,-981
2.490061,1776080968.583240,599616061353753408,-29,-345,-979
2.495061,1776080968.583240,599616061353753408,-30,-346,-981
2.500061,1776080968.583240,599616061353753408,-30,-341,-978
2.505061,1776080968.583240,599616061353753408,-31,-333,-976
2.510061,1776080968.583240,599616061353753408,-29,-331,-977
2.515061,1776080968.583240,599616061353753408,-30,-323,-974
2.520061,1776080968.583240,599616061353753408,-31,-324,-977
2.525061,1776080968.583240,599616061353753408,-31,-326,-980
2.530061,1776080968.583240,599616061353753408,-30,-321,-981
2.535061,1776080968.583240,599616061353753408,-32,-335,-980
2.540061,1776080968.583240,599616061353753408,-30,-334,-986
2.545061,1776080968.583240,599616061353753408,-32,-335,-986
2.550061,1776080968.583240,599616061353753408,-33,-338,-990
2.555061,1776080968.583240,599616061353753408,-36,-337,-988
2.560061,1776080968.583240,599616061353753408,-40,-340,-981
2.565061,1776080968.583240,599616061353753408,-38,-343,-974
2.570061,1776080968.583240,599616061353753408,-36,-342,-974
2.575061,1776080968.583240,599616061353753408,-34,-338,-980
2.580061,1776080968.583240,599616061353753408,-31,-333,-981
2.585061,1776080968.583240,599616061353753408,-30,-327,-983
2.590061,1776080968.583240,599616061353753408,-29,-327,-980
2.595061,1776080968.583240,599616061353753408,-29,-327,-981
2.600061,1776080968.583240,599616061353753408,-31,-329,-978
2.605061,1776080968.583240,599616061353753408,-33,-337,-971
2.610061,1776080968.583240,599616061353753408,-32,-335,-973
2.615061,1776080968.583240,599616061353753408,-32,-333,-971
2.620061,1776080968.583240,599616061353753408,-32,-336,-974
2.625061,1776080968.583240,599616061353753408,-33,-327,-977
2.630061,1776080968.583240,599616061353753408,-37,-326,-981
2.635061,1776080968.583240,599616061353753408,-35,-331,-996
2.640061,1776080968.583240,599616061353753408,-36,-333,-998
2.641119,1776080968.764289,599616061529811740,-37,-333,-993
2.646119,1776080968.764289,599616061529811740,-37,-333,-984
2.651119,1776080968.764289,599616061529811740,-37,-334,-981
2.656119,1776080968.764289,599616061529811740,-44,-338,-979
2.661119,1776080968.764289,599616061529811740,-52,-341,-977
2.666119,1776080968.764289,599616061529811740,-32,-339,-966
2.671119,1776080968.764289,599616061529811740,-23,-330,-990
2.676119,1776080968.764289,599616061529811740,-24,-335,-1001
2.681119,1776080968.764289,599616061529811740,-31,-346,-982
2.686119,1776080968.764289,599616061529811740,-30,-351,-959
2.691119,1776080968.764289,599616061529811740,-32,-358,-956
2.696119,1776080968.764289,599616061529811740,-29,-341,-963
2.701119,1776080968.764289,599616061529811740,-23,-324,-992
2.706119,1776080968.764289,599616061529811740,-19,-328,-994
2.711119,1776080968.764289,599616061529811740,-21,-335,-1002
2.716119,1776080968.764289,599616061529811740,-22,-334,-998
2.721119,1776080968.764289,599616061529811740,-24,-326,-992
2.726119,1776080968.764289,599616061529811740,-35,-334,-984
2.731119,1776080968.764289,599616061529811740,-43,-340,-980
2.736119,1776080968.764289,599616061529811740,-49,-334,-974
2.741119,1776080968.764289,599616061529811740,-54,-333,-979
2.746119,1776080968.764289,599616061529811740,-54,-329,-980
2.751119,1776080968.764289,599616061529811740,-52,-334,-982
2.756119,1776080968.764289,599616061529811740,-51,-344,-982
2.761119,1776080968.764289,599616061529811740,-46,-348,-984
2.766119,1776080968.764289,599616061529811740,-43,-350,-985
2.771119,1776080968.764289,599616061529811740,-43,-345,-982
2.776119,1776080968.764289,599616061529811740,-35,-349,-977
2.781119,1776080968.764289,599616061529811740,-36,-346,-978
2.786119,1776080968.764289,599616061529811740,-32,-340,-975
2.791119,1776080968.764289,599616061529811740,-31,-336,-976
2.796119,1776080968.764289,599616061529811740,-30,-334,-974
2.801119,1776080968.764289,599616061529811740,-30,-332,-972
2.806119,1776080968.764289,599616061529811740,-28,-329,-970
2.811119,1776080968.764289,599616061529811740,-31,-326,-973
2.816119,1776080968.764289,599616061529811740,-28,-328,-975
2.817147,1776080968.942754,599616061705839554,-30,-329,-972
2.822147,1776080968.942754,599616061705839554,-30,-331,-975
2.827147,1776080968.942754,599616061705839554,-29,-333,-984
2.832147,1776080968.942754,599616061705839554,-29,-328,-986
2.837147,1776080968.942754,599616061705839554,-28,-338,-990
2.842147,1776080968.942754,599616061705839554,-29,-339,-990
2.847147,1776080968.942754,599616061705839554,-31,-353,-987
2.852147,1776080968.942754,599616061705839554,-31,-358,-984
2.857147,1776080968.942754,599616061705839554,-26,-351,-985
2.862147,1776080968.942754,599616061705839554,-51,-360,-981
2.867147,1776080968.942754,599616061705839554,-60,-337,-962
2.872147,1776080968.942754,599616061705839554,-27,-302,-1012
2.877147,1776080968.942754,599616061705839554,-20,-319,-995
2.882147,1776080968.942754,599616061705839554,-26,-334,-979
2.887147,1776080968.942754,599616061705839554,-36,-322,-983
2.892147,1776080968.942754,599616061705839554,-34,-327,-981
2.897147,1776080968.942754,599616061705839554,-32,-324,-987
2.902147,1776080968.942754,599616061705839554,-29,-322,-988
2.907147,1776080968.942754,599616061705839554,-34,-332,-984
2.912147,1776080968.942754,599616061705839554,-36,-330,-980
2.917147,1776080968.942754,599616061705839554,-33,-334,-980
2.922147,1776080968.942754,599616061705839554,-28,-331,-981
2.927147,1776080968.942754,599616061705839554,-29,-334,-980
2.932147,1776080968.942754,599616061705839554,-35,-340,-974
2.937147,1776080968.942754,599616061705839554,-37,-346,-966
2.942147,1776080968.942754,599616061705839554,-38,-349,-969
2.947147,1776080968.942754,599616061705839554,-37,-340,-977
2.952147,1776080968.942754,599616061705839554,-36,-341,-984
2.957147,1776080968.942754,599616061705839554,-39,-337,-983
2.962147,1776080968.942754,599616061705839554,-40,-338,-980
2.967147,1776080968.942754,599616061705839554,-37,-340,-981
2.972147,1776080968.942754,599616061705839554,-37,-342,-979
2.977147,1776080968.942754,599616061705839554,-32,-341,-975
2.982147,1776080968.942754,599616061705839554,-34,-342,-979
2.987147,1776080968.942754,599616061705839554,-35,-337,-982
2.992147,1776080968.942754,599616061705839554,-35,-332,-987
2.993175,1776080969.123413,599616061881867378,-42,-334,-985
2.998175,1776080969.123413,599616061881867378,-36,-331,-987
3.003175,1776080969.123413,599616061881867378,-34,-325,-985
3.008175,1776080969.123413,599616061881867378,-32,-327,-983
3.013175,1776080969.123413,599616061881867378,-31,-334,-980
3.018175,1776080969.123413,599616061881867378,-30,-338,-974
3.023175,1776080969.123413,599616061881867378,-29,-342,-972
3.028175,1776080969.123413,599616061881867378,-30,-350,-969
3.033175,1776080969.123413,599616061881867378,-32,-344,-973
3.038175,1776080969.123413,599616061881867378,-31,-340,-976
3.043175,1776080969.123413,599616061881867378,-32,-334,-985
3.048175,1776080969.123413,599616061881867378,-33,-337,-989
3.053175,1776080969.123413,599616061881867378,-32,-333,-989
3.058175,1776080969.123413,599616061881867378,-33,-335,-988
3.063175,1776080969.123413,599616061881867378,-34,-334,-983
3.068175,1776080969.123413,599616061881867378,-35,-334,-983
3.073175,1776080969.123413,599616061881867378,-40,-344,-980
3.078175,1776080969.123413,599616061881867378,-37,-343,-986
3.083175,1776080969.123413,599616061881867378,-36,-334,-980
3.088175,1776080969.123413,599616061881867378,-36,-330,-979
3.093175,1776080969.123413,599616061881867378,-36,-328,-977
3.098175,1776080969.123413,599616061881867378,-31,-322,-980
3.103175,1776080969.123413,599616061881867378,-28,-326,-982
3.108175,1776080969.123413,599616061881867378,-29,-331,-986
3.113175,1776080969.123413,599616061881867378,-33,-338,-980
3.118175,1776080969.123413,599616061881867378,-34,-339,-986
3.123175,1776080969.123413,599616061881867378,-37,-337,-987
3.128175,1776080969.123413,599616061881867378,-38,-338,-987
3.133175,1776080969.123413,599616061881867378,-38,-339,-984
3.138175,1776080969.123413,599616061881867378,-36,-334,-980
3.143175,1776080969.123413,599616061881867378,-32,-333,-980
3.148175,1776080969.123413,599616061881867378,-30,-335,-981
3.153175,1776080969.123413,599616061881867378,-30,-333,-984
3.158175,1776080969.123413,599616061881867378,-32,-333,-986
3.163175,1776080969.123413,599616061881867378,-34,-336,-987
3.168175,1776080969.123413,599616061881867378,-39,-336,-985
3.169233,1776080969.304525,599616062057925730,-42,-336,-981
3.174233,1776080969.304525,599616062057925730,-39,-333,-975
3.179233,1776080969.304525,599616062057925730,-40,-336,-977
3.184233,1776080969.304525,599616062057925730,-38,-333,-977
3.189233,1776080969.304525,599616062057925730,-32,-330,-977
3.194233,1776080969.304525,599616062057925730,-33,-332,-981
3.199233,1776080969.304525,599616062057925730,-29,-332,-980
3.204233,1776080969.304525,599616062057925730,-31,-332,-980
3.209233,1776080969.304525,599616062057925730,-30,-337,-980
3.214233,1776080969.304525,599616062057925730,-31,-336,-984
3.219233,1776080969.304525,599616062057925730,-30,-341,-984
3.224233,1776080969.304525,599616062057925730,-29,-340,-984
3.229233,1776080969.304525,599616062057925730,-33,-340,-980
3.234233,1776080969.304525,599616062057925730,-33,-341,-976
3.239233,1776080969.304525,599616062057925730,-32,-346,-974
3.244233,1776080969.304525,599616062057925730,-33,-345,-977
3.249233,1776080969.304525,599616062057925730,-32,-340,-980
3.254233,1776080969.304525,599616062057925730,-32,-339,-980
3.259233,1776080969.304525,599616062057925730,-35,-334,-984
3.264233,1776080969.304525,599616062057925730,-38,-335,-982
3.269233,1776080969.304525,599616062057925730,-39,-326,-978
3.274233,1776080969.304525,599616062057925730,-39,-328,-983
3.279233,1776080969.304525,599616062057925730,-36,-328,-980
3.284233,1776080969.304525,599616062057925730,-33,-333,-977
3.289233,1776080969.304525,599616062057925730,-33,-335,-982
3.294233,1776080969.304525,599616062057925730,-28,-332,-985
3.299233,1776080969.304525,599616062057925730,-29,-335,-987
3.304233,1776080969.304525,599616062057925730,-32,-338,-990
3.309233,1776080969.304525,599616062057925730,-32,-336,-985
3.314233,1776080969.304525,599616062057925730,-36,-342,-983
3.319233,1776080969.304525,599616062057925730,-38,-342,-987
3.324233,1776080969.304525,599616062057925730,-38,-342,-981
3.329233,1776080969.304525,599616062057925730,-34,-334,-984
3.334233,1776080969.304525,599616062057925730,-32,-332,-976
3.339233,1776080969.304525,599616062057925730,-29,-338,-973
3.344233,1776080969.304525,599616062057925730,-32,-338,-973
3.345231,1776080969.439114,599616062233923052,-30,-338,-976
3.350231,1776080969.439114,599616062233923052,-30,-337,-977
3.355231,1776080969.439114,599616062233923052,-31,-336,-977
3.360231,1776080969.439114,599616062233923052,-32,-334,-975
3.365231,1776080969.439114,599616062233923052,-31,-335,-978
3.370231,1776080969.439114,599616062233923052,-31,-336,-985
3.375231,1776080969.439114,599616062233923052,-32,-333,-987
3.380231,1776080969.439114,599616062233923052,-34,-336,-988
3.385231,1776080969.439114,599616062233923052,-34,-340,-984
3.390231,1776080969.439114,599616062233923052,-37,-338,-983
3.395231,1776080969.439114,599616062233923052,-37,-336,-983
3.400231,1776080969.439114,599616062233923052,-35,-340,-981
3.405231,1776080969.439114,599616062233923052,-38,-341,-986
3.410231,1776080969.439114,599616062233923052,-35,-335,-981
3.415231,1776080969.439114,599616062233923052,-35,-341,-981
3.420231,1776080969.439114,599616062233923052,-35,-343,-978
3.425231,1776080969.439114,599616062233923052,-36,-340,-979
3.430230,1776080969.439114,599616062233923052,-36,-344,-977
3.435230,1776080969.439114,599616062233923052,-36,-343,-974
3.440230,1776080969.439114,599616062233923052,-34,-341,-977
3.445230,1776080969.439114,599616062233923052,-34,-333,-970
3.450230,1776080969.439114,599616062233923052,-32,-337,-970
3.455230,1776080969.439114,599616062233923052,-30,-335,-975
3.460231,1776080969.439114,599616062233923052,-32,-337,-979
3.465231,1776080969.439114,599616062233923052,-33,-340,-989
3.470231,1776080969.439114,599616062233923052,-36,-337,-994
3.475231,1776080969.439114,599616062233923052,-38,-338,-991
3.480231,1776080969.439114,599616062233923052,-38,-341,-989
3.485231,1776080969.439114,599616062233923052,-37,-344,-981
3.490231,1776080969.439114,599616062233923052,-39,-337,-976
3.495231,1776080969.439114,599616062233923052,-40,-336,-972
3.500231,1776080969.439114,599616062233923052,-46,-333,-980
3.505231,1776080969.439114,599616062233923052,-34,-329,-968
3.510231,1776080969.439114,599616062233923052,-25,-326,-991
3.515231,1776080969.439114,599616062233923052,-26,-331,-1008
3.520231,1776080969.439114,599616062233923052,-31,-339,-993
3.521319,1776080969.617634,599616062410011906,-33,-355,-964
3.526319,1776080969.617634,599616062410011906,-32,-354,-956
3.531319,1776080969.617634,599616062410011906,-33,-342,-966
3.536319,1776080969.617634,599616062410011906,-29,-327,-990
3.541319,1776080969.617634,599616062410011906,-28,-328,-993
3.546319,1776080969.617634,599616062410011906,-29,-333,-999
3.551319,1776080969.617634,599616062410011906,-30,-330,-1001
3.556319,1776080969.617634,599616062410011906,-31,-334,-993
3.561319,1776080969.617634,599616062410011906,-36,-332,-977
3.566319,1776080969.617634,599616062410011906,-41,-338,-971
3.571319,1776080969.617634,599616062410011906,-45,-342,-969
3.576319,1776080969.617634,599616062410011906,-49,-337,-974
3.581319,1776080969.617634,599616062410011906,-45,-342,-975
3.586319,1776080969.617634,599616062410011906,-45,-342,-984
3.591319,1776080969.617634,599616062410011906,-41,-343,-983
3.596319,1776080969.617634,599616062410011906,-37,-343,-985
3.601319,1776080969.617634,599616062410011906,-33,-339,-985
3.606319,1776080969.617634,599616062410011906,-37,-343,-981
3.611319,1776080969.617634,599616062410011906,-37,-341,-982
3.616319,1776080969.617634,599616062410011906,-36,-343,-979
3.621319,1776080969.617634,599616062410011906,-37,-348,-980
3.626319,1776080969.617634,599616062410011906,-36,-345,-978
3.631319,1776080969.617634,599616062410011906,-36,-342,-981
3.636319,1776080969.617634,599616062410011906,-36,-333,-977
3.641319,1776080969.617634,599616062410011906,-33,-329,-976
3.646319,1776080969.617634,599616062410011906,-29,-332,-975
3.651319,1776080969.617634,599616062410011906,-29,-337,-976
3.656319,1776080969.617634,599616062410011906,-30,-337,-979
3.661319,1776080969.617634,599616062410011906,-28,-339,-976
3.666319,1776080969.617634,599616062410011906,-30,-339,-969
3.671319,1776080969.617634,599616062410011906,-31,-345,-977
3.676319,1776080969.617634,599616062410011906,-31,-348,-978
3.681319,1776080969.617634,599616062410011906,-32,-345,-984
3.686319,1776080969.617634,599616062410011906,-33,-340,-986
3.691319,1776080969.617634,599616062410011906,-35,-334,-989
3.696319,1776080969.617634,599616062410011906,-33,-336,-989
3.697378,1776080969.797869,599616062586070238,-48,-340,-983
3.702378,1776080969.797869,599616062586070238,-76,-343,-962
3.707378,1776080969.797869,599616062586070238,-35,-300,-1006
3.712378,1776080969.797869,599616062586070238,-25,-310,-1017
3.717378,1776080969.797869,599616062586070238,-29,-339,-976
3.722378,1776080969.797869,599616062586070238,-37,-352,-974
3.727378,1776080969.797869,599616062586070238,-33,-355,-984
3.732378,1776080969.797869,599616062586070238,-24,-349,-978
3.737378,1776080969.797869,599616062586070238,-24,-347,-982
3.742378,1776080969.797869,599616062586070238,-29,-342,-978
3.747378,1776080969.797869,599616062586070238,-29,-337,-970
3.752378,1776080969.797869,599616062586070238,-30,-342,-968
3.757378,1776080969.797869,599616062586070238,-33,-344,-973
3.762378,1776080969.797869,599616062586070238,-36,-346,-973
3.767378,1776080969.797869,599616062586070238,-41,-346,-971
3.772378,1776080969.797869,599616062586070238,-41,-345,-969
3.777378,1776080969.797869,599616062586070238,-38,-339,-981
3.782378,1776080969.797869,599616062586070238,-40,-340,-988
3.787378,1776080969.797869,599616062586070238,-40,-331,-986
3.792378,1776080969.797869,599616062586070238,-42,-334,-980
3.797378,1776080969.797869,599616062586070238,-42,-341,-981
3.802378,1776080969.797869,599616062586070238,-42,-351,-975
3.807378,1776080969.797869,599616062586070238,-40,-346,-973
3.812378,1776080969.797869,599616062586070238,-36,-343,-974
3.817378,1776080969.797869,599616062586070238,-37,-336,-983
3.822378,1776080969.797869,599616062586070238,-35,-334,-986
3.827378,1776080969.797869,599616062586070238,-37,-332,-983
3.832378,1776080969.797869,599616062586070238,-42,-335,-980
3.837378,1776080969.797869,599616062586070238,-42,-337,-980
3.842378,1776080969.797869,599616062586070238,-39,-341,-980
3.847378,1776080969.797869,599616062586070238,-39,-343,-979
3.852378,1776080969.797869,599616062586070238,-36,-342,-984
3.857378,1776080969.797869,599616062586070238,-33,-342,-977
3.862378,1776080969.797869,599616062586070238,-31,-339,-979
3.867378,1776080969.797869,599616062586070238,-33,-339,-981
3.872378,1776080969.797869,599616062586070238,-31,-339,-979
3.873467,1776080970.022823,599616062762159108,-34,-338,-980
3.878467,1776080970.022823,599616062762159108,-32,-339,-978
3.883467,1776080970.022823,599616062762159108,-29,-343,-972
3.888467,1776080970.022823,599616062762159108,-32,-339,-973
3.893467,1776080970.022823,599616062762159108,-32,-341,-977
3.898467,1776080970.022823,599616062762159108,-36,-341,-982
3.903467,1776080970.022823,599616062762159108,-38,-335,-988
3.908467,1776080970.022823,599616062762159108,-38,-337,-986
3.913467,1776080970.022823,599616062762159108,-42,-334,-983
3.918467,1776080970.022823,599616062762159108,-44,-337,-977
3.923467,1776080970.022823,599616062762159108,-47,-339,-981
3.928467,1776080970.022823,599616062762159108,-43,-343,-976
3.933467,1776080970.022823,599616062762159108,-37,-343,-981
3.938467,1776080970.022823,599616062762159108,-37,-345,-981
3.943467,1776080970.022823,599616062762159108,-39,-343,-980
3.948467,1776080970.022823,599616062762159108,-39,-335,-983
3.953467,1776080970.022823,599616062762159108,-34,-340,-981
3.958467,1776080970.022823,599616062762159108,-34,-342,-981
3.963467,1776080970.022823,599616062762159108,-32,-339,-980
3.968467,1776080970.022823,599616062762159108,-35,-343,-973
3.973467,1776080970.022823,599616062762159108,-34,-342,-977
3.978467,1776080970.022823,599616062762159108,-33,-348,-978
3.983467,1776080970.022823,599616062762159108,-32,-343,-983
3.988467,1776080970.022823,599616062762159108,-30,-345,-976
3.993467,1776080970.022823,599616062762159108,-29,-341,-976
3.998467,1776080970.022823,599616062762159108,-30,-342,-976
4.003467,1776080970.022823,599616062762159108,-34,-339,-979
4.008467,1776080970.022823,599616062762159108,-36,-336,-982
4.013467,1776080970.022823,599616062762159108,-37,-339,-979
4.018467,1776080970.022823,599616062762159108,-39,-340,-982
4.023467,1776080970.022823,599616062762159108,-41,-343,-982
4.028467,1776080970.022823,599616062762159108,-43,-344,-985
4.033467,1776080970.022823,599616062762159108,-43,-340,-986
4.038467,1776080970.022823,599616062762159108,-42,-338,-984
4.043467,1776080970.022823,599616062762159108,-37,-336,-984
4.048467,1776080970.022823,599616062762159108,-35,-336,-985
4.049525,1776080970.203225,599616062938217440,-39,-342,-981
4.054525,1776080970.203225,599616062938217440,-37,-341,-987
4.059525,1776080970.203225,599616062938217440,-36,-342,-983
4.064525,1776080970.203225,599616062938217440,-37,-350,-976
4.069525,1776080970.203225,599616062938217440,-39,-349,-982
4.074525,1776080970.203225,599616062938217440,-37,-355,-987
4.079525,1776080970.203225,599616062938217440,-35,-348,-990
4.084525,1776080970.203225,599616062938217440,-38,-349,-991
4.089525,1776080970.203225,599616062938217440,-36,-345,-985
4.094525,1776080970.203225,599616062938217440,-30,-340,-982
4.099525,1776080970.203225,599616062938217440,-28,-336,-977
4.104525,1776080970.203225,599616062938217440,-28,-334,-979
4.109525,1776080970.203225,599616062938217440,-29,-329,-975
4.114525,1776080970.203225,599616062938217440,-28,-333,-976
4.119525,1776080970.203225,599616062938217440,-30,-327,-974
4.124525,1776080970.203225,599616062938217440,-29,-334,-974
4.129525,1776080970.203225,599616062938217440,-30,-333,-982
4.134525,1776080970.203225,599616062938217440,-31,-333,-977
4.139525,1776080970.203225,599616062938217440,-32,-333,-979
4.144525,1776080970.203225,599616062938217440,-32,-334,-983
4.149525,1776080970.203225,599616062938217440,-29,-331,-986
4.154525,1776080970.203225,599616062938217440,-36,-341,-979
4.159525,1776080970.203225,599616062938217440,-41,-338,-974
4.164525,1776080970.203225,599616062938217440,-42,-339,-982
4.169525,1776080970.203225,599616062938217440,-43,-347,-975
4.174525,1776080970.203225,599616062938217440,-39,-341,-976
4.179525,1776080970.203225,599616062938217440,-40,-341,-978
4.184525,1776080970.203225,599616062938217440,-36,-342,-978
4.189525,1776080970.203225,599616062938217440,-34,-339,-971
4.194525,1776080970.203225,599616062938217440,-33,-343,-976
4.199525,1776080970.203225,599616062938217440,-33,-343,-979
4.204525,1776080970.203225,599616062938217440,-34,-347,-984
4.209525,1776080970.203225,599616062938217440,-36,-345,-987
4.214525,1776080970.203225,599616062938217440,-38,-354,-984
4.219525,1776080970.203225,599616062938217440,-36,-344,-978
4.224525,1776080970.203225,599616062938217440,-39,-344,-975
4.225583,1776080970.338448,599616063114275782,-41,-339,-973
4.230583,1776080970.338448,599616063114275782,-44,-336,-988
4.235583,1776080970.338448,599616063114275782,-44,-331,-971
4.240583,1776080970.338448,599616063114275782,-25,-326,-973
4.245583,1776080970.338448,599616063114275782,-26,-334,-988
4.250583,1776080970.338448,599616063114275782,-34,-327,-993
4.255583,1776080970.338448,599616063114275782,-31,-341,-970
4.260583,1776080970.338448,599616063114275782,-31,-354,-946
4.265583,1776080970.338448,599616063114275782,-35,-353,-954
4.270583,1776080970.338448,599616063114275782,-33,-333,-980
4.275583,1776080970.338448,599616063114275782,-27,-330,-994
4.280583,1776080970.338448,599616063114275782,-28,-338,-1007
4.285583,1776080970.338448,599616063114275782,-25,-347,-1003
4.290583,1776080970.338448,599616063114275782,-29,-349,-996
4.295583,1776080970.338448,599616063114275782,-33,-349,-988
4.300583,1776080970.338448,599616063114275782,-40,-346,-981
4.305583,1776080970.338448,599616063114275782,-47,-345,-981
4.310583,1776080970.338448,599616063114275782,-50,-343,-977
4.315583,1776080970.338448,599616063114275782,-49,-336,-979
4.320583,1776080970.338448,599616063114275782,-48,-339,-981
4.325583,1776080970.338448,599616063114275782,-45,-332,-981
4.330583,1776080970.338448,599616063114275782,-42,-337,-986
4.335583,1776080970.338448,599616063114275782,-44,-339,-984
4.340583,1776080970.338448,599616063114275782,-44,-338,-986
4.345583,1776080970.338448,599616063114275782,-48,-337,-984
4.350583,1776080970.338448,599616063114275782,-50,-339,-990
4.355583,1776080970.338448,599616063114275782,-51,-336,-990
4.360583,1776080970.338448,599616063114275782,-44,-337,-988
4.365583,1776080970.338448,599616063114275782,-37,-336,-983
4.370583,1776080970.338448,599616063114275782,-30,-337,-979
4.375583,1776080970.338448,599616063114275782,-29,-339,-976
4.380583,1776080970.338448,599616063114275782,-25,-341,-975
4.385583,1776080970.338448,599616063114275782,-25,-335,-972
4.390583,1776080970.338448,599616063114275782,-24,-338,-976
4.395583,1776080970.338448,599616063114275782,-22,-337,-970
4.400583,1776080970.338448,599616063114275782,-23,-334,-979
4.401581,1776080970.519504,599616063290273104,-26,-336,-971
4.406581,1776080970.519504,599616063290273104,-28,-335,-975
4.411581,1776080970.519504,599616063290273104,-31,-337,-977
4.416581,1776080970.519504,599616063290273104,-36,-339,-981
4.421581,1776080970.519504,599616063290273104,-40,-342,-976
4.426581,1776080970.519504,599616063290273104,-36,-341,-979
4.431581,1776080970.519504,599616063290273104,-48,-346,-990
4.436581,1776080970.519504,599616063290273104,-89,-352,-976
4.441581,1776080970.519504,599616063290273104,-56,-308,-995
4.446581,1776080970.519504,599616063290273104,-34,-308,-1026
4.451581,1776080970.519504,599616063290273104,-30,-337,-987
4.456581,1776080970.519504,599616063290273104,-37,-346,-979
4.461581,1776080970.519504,599616063290273104,-42,-346,-982
4.466581,1776080970.519504,599616063290273104,-34,-346,-980
4.471581,1776080970.519504,599616063290273104,-33,-341,-978
4.476581,1776080970.519504,599616063290273104,-33,-339,-985
4.481581,1776080970.519504,599616063290273104,-31,-335,-978
4.486581,1776080970.519504,599616063290273104,-29,-333,-978
4.491581,1776080970.519504,599616063290273104,-30,-333,-973
4.496581,1776080970.519504,599616063290273104,-33,-340,-977
4.501581,1776080970.519504,599616063290273104,-38,-341,-962
4.506581,1776080970.519504,599616063290273104,-39,-347,-959
4.511581,1776080970.519504,599616063290273104,-40,-351,-960
4.516581,1776080970.519504,599616063290273104,-37,-350,-970
4.521581,1776080970.519504,599616063290273104,-40,-348,-978
4.526581,1776080970.519504,599616063290273104,-41,-345,-983
4.531581,1776080970.519504,599616063290273104,-42,-344,-981
4.536581,1776080970.519504,599616063290273104,-39,-343,-986
4.541581,1776080970.519504,599616063290273104,-40,-345,-981
4.546581,1776080970.519504,599616063290273104,-33,-333,-986
4.551581,1776080970.519504,599616063290273104,-31,-334,-989
4.556581,1776080970.519504,599616063290273104,-28,-330,-992
4.561581,1776080970.519504,599616063290273104,-29,-327,-987
4.566581,1776080970.519504,599616063290273104,-29,-331,-988
4.571581,1776080970.519504,599616063290273104,-32,-331,-988
4.576581,1776080970.519504,599616063290273104,-35,-342,-987
4.577639,1776080970.698321,599616063466331430,-39,-336,-986
4.582639,1776080970.698321,599616063466331430,-35,-338,-982
4.587639,1776080970.698321,599616063466331430,-35,-338,-980
4.592639,1776080970.698321,599616063466331430,-39,-337,-985
4.597639,1776080970.698321,599616063466331430,-36,-335,-987
4.602639,1776080970.698321,599616063466331430,-40,-343,-976
4.607639,1776080970.698321,599616063466331430,-38,-346,-976
4.612639,1776080970.698321,599616063466331430,-34,-339,-975
4.617639,1776080970.698321,599616063466331430,-34,-341,-978
4.622639,1776080970.698321,599616063466331430,-29,-339,-979
4.627639,1776080970.698321,599616063466331430,-29,-341,-979
4.632639,1776080970.698321,599616063466331430,-31,-345,-980
4.637639,1776080970.698321,599616063466331430,-31,-338,-978
4.642639,1776080970.698321,599616063466331430,-34,-340,-975
4.647639,1776080970.698321,599616063466331430,-35,-342,-974
4.652639,1776080970.698321,599616063466331430,-36,-340,-978
4.657639,1776080970.698321,599616063466331430,-36,-337,-978
4.662639,1776080970.698321,599616063466331430,-41,-334,-979
4.667639,1776080970.698321,599616063466331430,-37,-337,-983
4.672639,1776080970.698321,599616063466331430,-36,-337,-987
4.677639,1776080970.698321,599616063466331430,-34,-330,-981
4.682639,1776080970.698321,599616063466331430,-39,-335,-980
4.687639,1776080970.698321,599616063466331430,-40,-340,-985
4.692639,1776080970.698321,599616063466331430,-40,-342,-985
4.697639,1776080970.698321,599616063466331430,-40,-343,-987
4.702639,1776080970.698321,599616063466331430,-41,-347,-984
4.707639,1776080970.698321,599616063466331430,-43,-347,-980
4.712639,1776080970.698321,599616063466331430,-43,-348,-982
4.717639,1776080970.698321,599616063466331430,-41,-344,-989
4.722639,1776080970.698321,599616063466331430,-40,-344,-984
4.727639,1776080970.698321,599616063466331430,-42,-341,-978
4.732639,1776080970.698321,599616063466331430,-40,-342,-971
4.737639,1776080970.698321,599616063466331430,-41,-340,-970
4.742639,1776080970.698321,599616063466331430,-39,-336,-971
4.747639,1776080970.698321,599616063466331430,-36,-335,-978
4.752639,1776080970.698321,599616063466331430,-34,-345,-977
4.753606,1776080970.878485,599616063642298224,-31,-348,-972
4.758606,1776080970.878485,599616063642298224,-32,-346,-973
4.763606,1776080970.878485,599616063642298224,-29,-348,-976
4.768606,1776080970.878485,599616063642298224,-28,-352,-978
4.773606,1776080970.878485,599616063642298224,-29,-347,-987
4.778606,1776080970.878485,599616063642298224,-30,-347,-986
4.783606,1776080970.878485,599616063642298224,-32,-345,-978
4.788606,1776080970.878485,599616063642298224,-33,-335,-980
4.793606,1776080970.878485,599616063642298224,-34,-334,-983
4.798606,1776080970.878485,599616063642298224,-37,-337,-982
4.803606,1776080970.878485,599616063642298224,-37,-343,-984
4.808606,1776080970.878485,599616063642298224,-38,-345,-983
4.813606,1776080970.878485,599616063642298224,-33,-349,-982
4.818606,1776080970.878485,599616063642298224,-37,-345,-980
4.823606,1776080970.878485,599616063642298224,-36,-347,-976
4.828606,1776080970.878485,599616063642298224,-34,-343,-974
4.833606,1776080970.878485,599616063642298224,-36,-345,-975
4.838606,1776080970.878485,599616063642298224,-37,-344,-983
4.843606,1776080970.878485,599616063642298224,-40,-346,-990
4.848606,1776080970.878485,599616063642298224,-40,-343,-985
4.853606,1776080970.878485,599616063642298224,-41,-345,-984
4.858606,1776080970.878485,599616063642298224,-44,-342,-983
4.863606,1776080970.878485,599616063642298224,-48,-335,-978
4.868606,1776080970.878485,599616063642298224,-45,-333,-989
4.873606,1776080970.878485,599616063642298224,-51,-329,-997
4.878606,1776080970.878485,599616063642298224,-34,-334,-973
4.883606,1776080970.878485,599616063642298224,-26,-338,-977
4.888606,1776080970.878485,599616063642298224,-31,-345,-987
4.893606,1776080970.878485,599616063642298224,-32,-349,-974
4.898606,1776080970.878485,599616063642298224,-33,-359,-954
4.903606,1776080970.878485,599616063642298224,-44,-369,-952
4.908606,1776080970.878485,599616063642298224,-43,-353,-968
4.913606,1776080970.878485,599616063642298224,-34,-332,-991
4.918606,1776080970.878485,599616063642298224,-32,-327,-1001
4.923606,1776080970.878485,599616063642298224,-27,-325,-1005
4.928606,1776080970.878485,599616063642298224,-28,-334,-1002
4.929695,1776080971.058814,599616063818387088,-27,-350,-992
4.934695,1776080971.058814,599616063818387088,-36,-352,-979
4.939695,1776080971.058814,599616063818387088,-46,-355,-969
4.944695,1776080971.058814,599616063818387088,-52,-353,-965
4.949695,1776080971.058814,599616063818387088,-61,-350,-968
4.954695,1776080971.058814,599616063818387088,-59,-342,-974
4.959695,1776080971.058814,599616063818387088,-53,-342,-979
4.964694,1776080971.058814,599616063818387088,-45,-349,-970
4.969694,1776080971.058814,599616063818387088,-40,-352,-973
4.974694,1776080971.058814,599616063818387088,-36,-344,-977
4.979694,1776080971.058814,599616063818387088,-35,-348,-977
4.984694,1776080971.058814,599616063818387088,-34,-344,-978
4.989694,1776080971.058814,599616063818387088,-35,-340,-977
4.994694,1776080971.058814,599616063818387088,-33,-338,-978
4.999694,1776080971.058814,599616063818387088,-35,-337,-979
5.004694,1776080971.058814,599616063818387088,-35,-337,-974
5.009694,1776080971.058814,599616063818387088,-39,-334,-973
5.014694,1776080971.058814,599616063818387088,-37,-327,-971
5.019694,1776080971.058814,599616063818387088,-37,-327,-972
5.024694,1776080971.058814,599616063818387088,-37,-333,-977
5.029694,1776080971.058814,599616063818387088,-37,-333,-980
5.034694,1776080971.058814,599616063818387088,-38,-338,-981
5.039694,1776080971.058814,599616063818387088,-39,-335,-983
5.044695,1776080971.058814,599616063818387088,-34,-334,-995
5.049695,1776080971.058814,599616063818387088,-33,-339,-990
5.054695,1776080971.058814,599616063818387088,-30,-337,-988
5.059695,1776080971.058814,599616063818387088,-30,-338,-984
5.064695,1776080971.058814,599616063818387088,-28,-341,-982
5.069695,1776080971.058814,599616063818387088,-27,-347,-991
5.074695,1776080971.058814,599616063818387088,-79,-361,-1001
5.079695,1776080971.058814,599616063818387088,-48,-322,-965
5.084695,1776080971.058814,599616063818387088,-27,-305,-1020
5.089694,1776080971.058814,599616063818387088,-30,-322,-1000
5.094694,1776080971.058814,599616063818387088,-26,-351,-958
5.099694,1776080971.058814,599616063818387088,-27,-358,-969
5.104694,1776080971.058814,599616063818387088,-29,-358,-971
5.105722,1776080971.238876,599616063994414892,-28,-350,-980
5.110722,1776080971.238876,599616063994414892,-26,-344,-981
5.115722,1776080971.238876,599616063994414892,-28,-342,-988
5.120722,1776080971.238876,599616063994414892,-30,-338,-984
5.125722,1776080971.238876,599616063994414892,-33,-334,-985
5.130722,1776080971.238876,599616063994414892,-41,-337,-974
5.135722,1776080971.238876,599616063994414892,-50,-343,-970
5.140722,1776080971.238876,599616063994414892,-52,-354,-960
5.145722,1776080971.238876,599616063994414892,-52,-362,-958
5.150722,1776080971.238876,599616063994414892,-54,-356,-966
5.155722,1776080971.238876,599616063994414892,-55,-349,-980
5.160722,1776080971.238876,599616063994414892,-54,-347,-983
5.165722,1776080971.238876,599616063994414892,-46,-349,-983
5.170722,1776080971.238876,599616063994414892,-45,-339,-982
5.175722,1776080971.238876,599616063994414892,-39,-340,-981
5.180722,1776080971.238876,599616063994414892,-33,-341,-977
5.185722,1776080971.238876,599616063994414892,-29,-341,-975
5.190722,1776080971.238876,599616063994414892,-27,-340,-981
5.195722,1776080971.238876,599616063994414892,-30,-334,-974
5.200722,1776080971.238876,599616063994414892,-32,-335,-979
5.205722,1776080971.238876,599616063994414892,-32,-338,-976
5.210722,1776080971.238876,599616063994414892,-34,-340,-982
5.215722,1776080971.238876,599616063994414892,-32,-344,-987
5.220722,1776080971.238876,599616063994414892,-32,-342,-989
5.225722,1776080971.238876,599616063994414892,-33,-346,-985
5.230722,1776080971.238876,599616063994414892,-31,-348,-987
5.235722,1776080971.238876,599616063994414892,-32,-346,-976
5.240722,1776080971.238876,599616063994414892,-31,-341,-984
5.245722,1776080971.238876,599616063994414892,-30,-339,-978
5.250722,1776080971.238876,599616063994414892,-30,-339,-976
5.255722,1776080971.238876,599616063994414892,-32,-334,-978
5.260722,1776080971.238876,599616063994414892,-32,-336,-979
5.265722,1776080971.238876,599616063994414892,-34,-341,-980
5.270722,1776080971.238876,599616063994414892,-37,-346,-981
5.275722,1776080971.238876,599616063994414892,-37,-345,-978
5.280722,1776080971.238876,599616063994414892,-36,-351,-978
5.281781,1776080971.418311,599616064170473244,-35,-352,-978
5.286781,1776080971.418311,599616064170473244,-35,-345,-976
5.291781,1776080971.418311,599616064170473244,-33,-340,-980
5.296781,1776080971.418311,599616064170473244,-32,-336,-987
5.301781,1776080971.418311,599616064170473244,-31,-339,-990
5.306781,1776080971.418311,599616064170473244,-33,-344,-986
5.311781,1776080971.418311,599616064170473244,-33,-346,-982
5.316781,1776080971.418311,599616064170473244,-34,-346,-980
5.321781,1776080971.418311,599616064170473244,-32,-352,-973
5.326781,1776080971.418311,599616064170473244,-32,-355,-973
5.331781,1776080971.418311,599616064170473244,-33,-348,-970
5.336781,1776080971.418311,599616064170473244,-41,-342,-975
5.341781,1776080971.418311,599616064170473244,-45,-337,-973
5.346781,1776080971.418311,599616064170473244,-48,-338,-972
5.351781,1776080971.418311,599616064170473244,-46,-337,-974
5.356781,1776080971.418311,599616064170473244,-43,-338,-980
5.361781,1776080971.418311,599616064170473244,-42,-335,-989
5.366781,1776080971.418311,599616064170473244,-33,-341,-988
5.371781,1776080971.418311,599616064170473244,-31,-347,-985
5.376781,1776080971.418311,599616064170473244,-29,-340,-983
5.381781,1776080971.418311,599616064170473244,-30,-344,-982
5.386781,1776080971.418311,599616064170473244,-33,-338,-981
5.391781,1776080971.418311,599616064170473244,-29,-331,-977
5.396781,1776080971.418311,599616064170473244,-30,-321,-998
5.401781,1776080971.418311,599616064170473244,-32,-322,-985
5.406781,1776080971.418311,599616064170473244,-24,-337,-973
5.411781,1776080971.418311,599616064170473244,-26,-337,-971
5.416781,1776080971.418311,599616064170473244,-35,-340,-976
5.421781,1776080971.418311,599616064170473244,-28,-358,-964
5.426781,1776080971.418311,599616064170473244,-36,-366,-955
5.431781,1776080971.418311,599616064170473244,-45,-368,-963
5.436781,1776080971.418311,599616064170473244,-36,-352,-981
5.441781,1776080971.418311,599616064170473244,-29,-333,-995
5.446781,1776080971.418311,599616064170473244,-25,-327,-1001
5.451781,1776080971.418311,599616064170473244,-23,-333,-992
5.456781,1776080971.418311,599616064170473244,-23,-338,-981
5.457870,1776080971.552788,599616064346562114,-26,-349,-974
5.462870,1776080971.552788,599616064346562114,-31,-358,-968
5.467870,1776080971.552788,599616064346562114,-39,-361,-968
5.472870,1776080971.552788,599616064346562114,-46,-353,-972
5.477870,1776080971.552788,599616064346562114,-51,-349,-980
5.482870,1776080971.552788,599616064346562114,-46,-340,-981
5.487870,1776080971.552788,599616064346562114,-47,-340,-980
5.492870,1776080971.552788,599616064346562114,-38,-344,-981
5.497870,1776080971.552788,599616064346562114,-35,-347,-979
5.502870,1776080971.552788,599616064346562114,-35,-353,-979
5.507870,1776080971.552788,599616064346562114,-34,-351,-979
5.512870,1776080971.552788,599616064346562114,-32,-348,-979
5.517870,1776080971.552788,599616064346562114,-34,-345,-978
5.522870,1776080971.552788,599616064346562114,-32,-345,-975
5.527870,1776080971.552788,599616064346562114,-34,-337,-980
5.532870,1776080971.552788,599616064346562114,-34,-338,-976
5.537870,1776080971.552788,599616064346562114,-31,-337,-976
5.542870,1776080971.552788,599616064346562114,-29,-333,-981
5.547870,1776080971.552788,599616064346562114,-28,-332,-978
5.552870,1776080971.552788,599616064346562114,-26,-337,-974
5.557870,1776080971.552788,599616064346562114,-27,-337,-973
5.562870,1776080971.552788,599616064346562114,-26,-343,-973
5.567870,1776080971.552788,599616064346562114,-26,-338,-975
5.572870,1776080971.552788,599616064346562114,-29,-345,-980
5.577870,1776080971.552788,599616064346562114,-31,-347,-985
5.582870,1776080971.552788,599616064346562114,-31,-343,-982
5.587870,1776080971.552788,599616064346562114,-28,-346,-974
5.592870,1776080971.552788,599616064346562114,-37,-356,-989
5.597870,1776080971.552788,599616064346562114,-86,-351,-999
5.602870,1776080971.552788,599616064346562114,-41,-321,-972
5.607870,1776080971.552788,599616064346562114,-29,-307,-1025
5.612870,1776080971.552788,599616064346562114,-32,-317,-997
5.617870,1776080971.552788,599616064346562114,-24,-340,-958
5.622870,1776080971.552788,599616064346562114,-25,-344,-978
5.627870,1776080971.552788,599616064346562114,-20,-345,-983
5.632870,1776080971.552788,599616064346562114,-17,-342,-978
5.633958,1776080971.733059,599616064522650974,-25,-345,-975
5.638958,1776080971.733059,599616064522650974,-26,-344,-976
5.643958,1776080971.733059,599616064522650974,-25,-339,-980
5.648958,1776080971.733059,599616064522650974,-25,-339,-979
5.653958,1776080971.733059,599616064522650974,-29,-338,-974
5.658958,1776080971.733059,599616064522650974,-34,-339,-967
5.663958,1776080971.733059,599616064522650974,-36,-339,-971
5.668958,1776080971.733059,599616064522650974,-39,-337,-977
5.673958,1776080971.733059,599616064522650974,-40,-343,-982
5.678958,1776080971.733059,599616064522650974,-38,-342,-986
5.683958,1776080971.733059,599616064522650974,-37,-339,-984
5.688958,1776080971.733059,599616064522650974,-34,-341,-982
5.693958,1776080971.733059,599616064522650974,-33,-343,-976
5.698958,1776080971.733059,599616064522650974,-29,-343,-973
5.703958,1776080971.733059,599616064522650974,-27,-353,-979
5.708958,1776080971.733059,599616064522650974,-24,-346,-989
5.713958,1776080971.733059,599616064522650974,-27,-343,-989
5.718958,1776080971.733059,599616064522650974,-26,-339,-993
5.723958,1776080971.733059,599616064522650974,-29,-340,-984
5.728958,1776080971.733059,599616064522650974,-28,-344,-977
5.733958,1776080971.733059,599616064522650974,-26,-340,-984
5.738958,1776080971.733059,599616064522650974,-26,-338,-982
5.743958,1776080971.733059,599616064522650974,-27,-338,-985
5.748958,1776080971.733059,599616064522650974,-29,-335,-987
5.753958,1776080971.733059,599616064522650974,-31,-334,-981
5.758958,1776080971.733059,599616064522650974,-30,-337,-982
5.763958,1776080971.733059,599616064522650974,-29,-331,-980
5.768958,1776080971.733059,599616064522650974,-31,-335,-980
5.773958,1776080971.733059,599616064522650974,-28,-341,-977
5.778958,1776080971.733059,599616064522650974,-27,-338,-983
5.783958,1776080971.733059,599616064522650974,-27,-336,-984
5.788958,1776080971.733059,599616064522650974,-29,-339,-982
5.793958,1776080971.733059,599616064522650974,-31,-342,-979
5.798958,1776080971.733059,599616064522650974,-32,-339,-977
5.803958,1776080971.733059,599616064522650974,-35,-338,-978
5.808958,1776080971.733059,599616064522650974,-35,-338,-982
5.809986,1776080971.913357,599616064698678778,-36,-338,-980
5.814986,1776080971.913357,599616064698678778,-35,-340,-969
5.819986,1776080971.913357,599616064698678778,-34,-342,-975
5.824986,1776080971.913357,599616064698678778,-35,-342,-974
5.829986,1776080971.913357,599616064698678778,-34,-334,-983
5.834986,1776080971.913357,599616064698678778,-33,-338,-983
5.839986,1776080971.913357,599616064698678778,-33,-337,-986
5.844986,1776080971.913357,599616064698678778,-33,-337,-990
5.849986,1776080971.913357,599616064698678778,-33,-340,-991
5.854986,1776080971.913357,599616064698678778,-32,-339,-982
5.859986,1776080971.913357,599616064698678778,-29,-338,-981
5.864986,1776080971.913357,599616064698678778,-35,-341,-985
5.869986,1776080971.913357,599616064698678778,-34,-335,-972
5.874986,1776080971.913357,599616064698678778,-30,-326,-986
5.879986,1776080971.913357,599616064698678778,-35,-320,-991
5.884986,1776080971.913357,599616064698678778,-28,-324,-973
5.889986,1776080971.913357,599616064698678778,-22,-334,-966
5.894986,1776080971.913357,599616064698678778,-29,-330,-982
5.899986,1776080971.913357,599616064698678778,-32,-340,-971
5.904986,1776080971.913357,599616064698678778,-29,-352,-953
5.909986,1776080971.913357,599616064698678778,-39,-367,-955
5.914986,1776080971.913357,599616064698678778,-40,-360,-967
5.919986,1776080971.913357,599616064698678778,-35,-344,-983
5.924986,1776080971.913357,599616064698678778,-29,-330,-1001
5.929986,1776080971.913357,599616064698678778,-24,-324,-1003
5.934986,1776080971.913357,599616064698678778,-22,-325,-1003
5.939986,1776080971.913357,599616064698678778,-23,-338,-1000
5.944986,1776080971.913357,599616064698678778,-26,-346,-988
5.949986,1776080971.913357,599616064698678778,-34,-359,-976
5.954986,1776080971.913357,599616064698678778,-42,-361,-970
5.959986,1776080971.913357,599616064698678778,-47,-353,-972
5.964986,1776080971.913357,599616064698678778,-52,-346,-979
5.969986,1776080971.913357,599616064698678778,-48,-336,-981
5.974986,1776080971.913357,599616064698678778,-44,-333,-988
5.979986,1776080971.913357,599616064698678778,-41,-337,-985
5.984986,1776080971.913357,599616064698678778,-39,-332,-985
5.986106,1776080972.137984,599616064874798150,-38,-332,-980
5.991106,1776080972.137984,599616064874798150,-33,-341,-977
5.996106,1776080972.137984,599616064874798150,-36,-348,-973
6.001106,1776080972.137984,599616064874798150,-34,-346,-971
6.006106,1776080972.137984,599616064874798150,-34,-350,-971
6.011106,1776080972.137984,599616064874798150,-32,-343,-974
6.016106,1776080972.137984,599616064874798150,-32,-347,-973
6.021106,1776080972.137984,599616064874798150,-32,-345,-980
6.026106,1776080972.137984,599616064874798150,-31,-340,-976
6.031106,1776080972.137984,599616064874798150,-32,-338,-980
6.036106,1776080972.137984,599616064874798150,-29,-334,-980
6.041106,1776080972.137984,599616064874798150,-31,-329,-979
6.046106,1776080972.137984,599616064874798150,-31,-339,-977
6.051106,1776080972.137984,599616064874798150,-32,-334,-979
6.056106,1776080972.137984,599616064874798150,-35,-339,-982
6.061106,1776080972.137984,599616064874798150,-32,-344,-977
6.066106,1776080972.137984,599616064874798150,-30,-346,-970
6.071106,1776080972.137984,599616064874798150,-27,-352,-975
6.076106,1776080972.137984,599616064874798150,-66,-359,-1016
6.081106,1776080972.137984,599616064874798150,-69,-324,-976
6.086106,1776080972.137984,599616064874798150,-33,-304,-1012
6.091106,1776080972.137984,599616064874798150,-27,-323,-1001
6.096106,1776080972.137984,599616064874798150,-24,-342,-975
6.101106,1776080972.137984,599616064874798150,-29,-346,-985
6.106106,1776080972.137984,599616064874798150,-25,-347,-978
6.111106,1776080972.137984,599616064874798150,-24,-342,-984
6.116106,1776080972.137984,599616064874798150,-25,-339,-982
6.121106,1776080972.137984,599616064874798150,-29,-334,-979
6.126106,1776080972.137984,599616064874798150,-31,-327,-981
6.131106,1776080972.137984,599616064874798150,-33,-330,-982
6.136106,1776080972.137984,599616064874798150,-34,-334,-977
6.141106,1776080972.137984,599616064874798150,-37,-338,-971
6.146106,1776080972.137984,599616064874798150,-45,-342,-966
6.151106,1776080972.137984,599616064874798150,-41,-348,-967
6.156106,1776080972.137984,599616064874798150,-40,-348,-970
6.161106,1776080972.137984,599616064874798150,-41,-351,-973
6.162225,1776080972.272897,599616065050917528,-39,-347,-981
6.167225,1776080972.272897,599616065050917528,-39,-351,-990
6.172225,1776080972.272897,599616065050917528,-40,-348,-991
6.177225,1776080972.272897,599616065050917528,-38,-349,-984
6.182225,1776080972.272897,599616065050917528,-35,-352,-976
6.187225,1776080972.272897,599616065050917528,-34,-343,-978
6.192225,1776080972.272897,599616065050917528,-34,-340,-984
6.197225,1776080972.272897,599616065050917528,-35,-337,-983
6.202225,1776080972.272897,599616065050917528,-37,-342,-981
6.207225,1776080972.272897,599616065050917528,-36,-338,-979
6.212225,1776080972.272897,599616065050917528,-34,-339,-978
6.217225,1776080972.272897,599616065050917528,-32,-340,-975
6.222225,1776080972.272897,599616065050917528,-29,-342,-978
6.227225,1776080972.272897,599616065050917528,-30,-348,-978
6.232225,1776080972.272897,599616065050917528,-30,-347,-971
6.237225,1776080972.272897,599616065050917528,-30,-346,-975
6.242225,1776080972.272897,599616065050917528,-29,-344,-982
6.247225,1776080972.272897,599616065050917528,-31,-345,-979
6.252225,1776080972.272897,599616065050917528,-34,-344,-986
6.257225,1776080972.272897,599616065050917528,-36,-337,-987
6.262225,1776080972.272897,599616065050917528,-40,-344,-982
6.267225,1776080972.272897,599616065050917528,-38,-344,-983
6.272225,1776080972.272897,599616065050917528,-42,-345,-978
6.277225,1776080972.272897,599616065050917528,-40,-356,-973
6.282225,1776080972.272897,599616065050917528,-38,-352,-980
6.287225,1776080972.272897,599616065050917528,-36,-345,-980
6.292225,1776080972.272897,599616065050917528,-37,-348,-982
6.297225,1776080972.272897,599616065050917528,-34,-345,-983
6.302225,1776080972.272897,599616065050917528,-33,-344,-985
6.307225,1776080972.272897,599616065050917528,-33,-344,-982
6.312225,1776080972.272897,599616065050917528,-33,-340,-976
6.317225,1776080972.272897,599616065050917528,-33,-342,-976
6.322225,1776080972.272897,599616065050917528,-31,-336,-975
6.327225,1776080972.272897,599616065050917528,-34,-339,-973
6.332225,1776080972.272897,599616065050917528,-32,-334,-978
6.337225,1776080972.272897,599616065050917528,-36,-341,-972
6.338283,1776080972.453248,599616065226975886,-37,-347,-977
6.343283,1776080972.453248,599616065226975886,-40,-346,-971
6.348283,1776080972.453248,599616065226975886,-41,-347,-967
6.353283,1776080972.453248,599616065226975886,-42,-347,-971
6.358283,1776080972.453248,599616065226975886,-39,-346,-971
6.363283,1776080972.453248,599616065226975886,-37,-337,-981
6.368283,1776080972.453248,599616065226975886,-37,-338,-989
6.373283,1776080972.453248,599616065226975886,-37,-335,-993
6.378283,1776080972.453248,599616065226975886,-40,-335,-995
6.383283,1776080972.453248,599616065226975886,-38,-339,-995
6.388283,1776080972.453248,599616065226975886,-34,-347,-989
6.393283,1776080972.453248,599616065226975886,-33,-344,-987
6.398283,1776080972.453248,599616065226975886,-29,-344,-984
6.403283,1776080972.453248,599616065226975886,-32,-344,-981
6.408283,1776080972.453248,599616065226975886,-43,-340,-976
6.413283,1776080972.453248,599616065226975886,-37,-331,-971
6.418283,1776080972.453248,599616065226975886,-25,-328,-985
6.423283,1776080972.453248,599616065226975886,-26,-331,-982
6.428283,1776080972.453248,599616065226975886,-40,-344,-979
6.433283,1776080972.453248,599616065226975886,-38,-343,-958
6.438283,1776080972.453248,599616065226975886,-35,-352,-955
6.443283,1776080972.453248,599616065226975886,-40,-365,-957
6.448283,1776080972.453248,599616065226975886,-36,-347,-968
6.453283,1776080972.453248,599616065226975886,-30,-323,-988
6.458283,1776080972.453248,599616065226975886,-26,-321,-1001
6.463283,1776080972.453248,599616065226975886,-20,-327,-1007
6.468283,1776080972.453248,599616065226975886,-23,-335,-1006
6.473283,1776080972.453248,599616065226975886,-29,-349,-1002
6.478283,1776080972.453248,599616065226975886,-38,-356,-985
6.483283,1776080972.453248,599616065226975886,-46,-362,-973
6.488283,1776080972.453248,599616065226975886,-53,-352,-978
6.493283,1776080972.453248,599616065226975886,-57,-352,-972
6.498283,1776080972.453248,599616065226975886,-55,-339,-976
6.503283,1776080972.453248,599616065226975886,-52,-337,-981
6.508283,1776080972.453248,599616065226975886,-49,-332,-979
6.513283,1776080972.453248,599616065226975886,-44,-335,-978
6.514372,1776080972.632659,599616065403064756,-44,-343,-974
6.519372,1776080972.632659,599616065403064756,-44,-344,-972
6.524372,1776080972.632659,599616065403064756,-41,-349,-973
6.529372,1776080972.632659,599616065403064756,-39,-345,-975
6.534372,1776080972.632659,599616065403064756,-38,-345,-971
6.539372,1776080972.632659,599616065403064756,-34,-347,-969
6.544372,1776080972.632659,599616065403064756,-31,-340,-973
6.549372,1776080972.632659,599616065403064756,-29,-336,-974
6.554372,1776080972.632659,599616065403064756,-29,-332,-977
6.559372,1776080972.632659,599616065403064756,-27,-330,-974
6.564372,1776080972.632659,599616065403064756,-27,-331,-978
6.569372,1776080972.632659,599616065403064756,-28,-334,-979
6.574372,1776080972.632659,599616065403064756,-30,-341,-984
6.579372,1776080972.632659,599616065403064756,-33,-337,-981
6.584372,1776080972.632659,599616065403064756,-33,-344,-982
6.589372,1776080972.632659,599616065403064756,-38,-343,-981
6.594372,1776080972.632659,599616065403064756,-36,-343,-981
6.599372,1776080972.632659,599616065403064756,-36,-343,-975
6.604372,1776080972.632659,599616065403064756,-30,-349,-970
6.609372,1776080972.632659,599616065403064756,-39,-348,-1001
6.614372,1776080972.632659,599616065403064756,-99,-341,-1005
6.619372,1776080972.632659,599616065403064756,-59,-308,-997
6.624372,1776080972.632659,599616065403064756,-31,-323,-988
6.629372,1776080972.632659,599616065403064756,-28,-336,-981
6.634372,1776080972.632659,599616065403064756,-36,-339,-991
6.639372,1776080972.632659,599616065403064756,-31,-340,-986
6.644372,1776080972.632659,599616065403064756,-27,-341,-990
6.649372,1776080972.632659,599616065403064756,-31,-338,-985
6.654372,1776080972.632659,599616065403064756,-31,-338,-983
6.659372,1776080972.632659,599616065403064756,-32,-333,-982
6.664372,1776080972.632659,599616065403064756,-35,-333,-982
6.669372,1776080972.632659,599616065403064756,-36,-339,-979
6.674372,1776080972.632659,599616065403064756,-32,-337,-976
6.679372,1776080972.632659,599616065403064756,-36,-339,-974
6.684372,1776080972.632659,599616065403064756,-43,-341,-968
6.689372,1776080972.632659,599616065403064756,-40,-339,-971
6.690369,1776080972.812696,599616065579062068,-37,-336,-975
6.695369,1776080972.812696,599616065579062068,-37,-338,-978
6.700369,1776080972.812696,599616065579062068,-41,-334,-987
6.705369,1776080972.812696,599616065579062068,-44,-331,-980
6.710369,1776080972.812696,599616065579062068,-45,-335,-988
6.715369,1776080972.812696,599616065579062068,-43,-343,-980
6.720369,1776080972.812696,599616065579062068,-42,-345,-978
6.725369,1776080972.812696,599616065579062068,-35,-343,-978
6.730369,1776080972.812696,599616065579062068,-36,-343,-981
6.735369,1776080972.812696,599616065579062068,-36,-336,-985
6.740369,1776080972.812696,599616065579062068,-36,-338,-988
6.745369,1776080972.812696,599616065579062068,-36,-341,-983
6.750369,1776080972.812696,599616065579062068,-34,-336,-981
6.755369,1776080972.812696,599616065579062068,-35,-341,-976
6.760369,1776080972.812696,599616065579062068,-34,-340,-983
6.765369,1776080972.812696,599616065579062068,-33,-345,-976
6.770369,1776080972.812696,599616065579062068,-32,-341,-984
6.775369,1776080972.812696,599616065579062068,-31,-343,-979
6.780369,1776080972.812696,599616065579062068,-32,-341,-975
6.785369,1776080972.812696,599616065579062068,-34,-342,-972
6.790369,1776080972.812696,599616065579062068,-34,-337,-976
6.795369,1776080972.812696,599616065579062068,-36,-341,-982
6.800369,1776080972.812696,599616065579062068,-38,-340,-987
6.805369,1776080972.812696,599616065579062068,-38,-341,-990
6.810369,1776080972.812696,599616065579062068,-38,-347,-981
6.815369,1776080972.812696,599616065579062068,-39,-342,-984
6.820369,1776080972.812696,599616065579062068,-40,-343,-984
6.825369,1776080972.812696,599616065579062068,-39,-343,-984
6.830369,1776080972.812696,599616065579062068,-35,-346,-986
6.835369,1776080972.812696,599616065579062068,-34,-344,-980
6.840369,1776080972.812696,599616065579062068,-33,-345,-980
6.845369,1776080972.812696,599616065579062068,-34,-344,-973
6.850369,1776080972.812696,599616065579062068,-36,-344,-981
6.855369,1776080972.812696,599616065579062068,-42,-342,-982
6.860369,1776080972.812696,599616065579062068,-41,-337,-983
6.865369,1776080972.812696,599616065579062068,-39,-327,-984
6.866428,1776080973.128494,599616065755120394,-38,-328,-988
6.871428,1776080973.128494,599616065755120394,-37,-327,-985
6.876428,1776080973.128494,599616065755120394,-36,-333,-984
6.881428,1776080973.128494,599616065755120394,-39,-331,-979
6.886428,1776080973.128494,599616065755120394,-39,-340,-977
6.891428,1776080973.128494,599616065755120394,-37,-342,-979
6.896428,1776080973.128494,599616065755120394,-38,-351,-975
6.901428,1776080973.128494,599616065755120394,-39,-352,-975
6.906428,1776080973.128494,599616065755120394,-38,-348,-977
6.911428,1776080973.128494,599616065755120394,-41,-343,-980
6.916428,1776080973.128494,599616065755120394,-41,-343,-976
6.921428,1776080973.128494,599616065755120394,-38,-350,-979
6.926428,1776080973.128494,599616065755120394,-35,-351,-977
6.931428,1776080973.128494,599616065755120394,-34,-349,-980
6.936428,1776080973.128494,599616065755120394,-35,-344,-977
6.941428,1776080973.128494,599616065755120394,-35,-342,-980
6.946428,1776080973.128494,599616065755120394,-34,-342,-982
6.951428,1776080973.128494,599616065755120394,-35,-334,-982
6.956428,1776080973.128494,599616065755120394,-35,-334,-987
6.961428,1776080973.128494,599616065755120394,-38,-331,-987
6.966428,1776080973.128494,599616065755120394,-38,-333,-990
6.971428,1776080973.128494,599616065755120394,-38,-330,-989
6.976428,1776080973.128494,599616065755120394,-35,-333,-981
6.981428,1776080973.128494,599616065755120394,-35,-338,-977
6.986428,1776080973.128494,599616065755120394,-33,-344,-980
6.991428,1776080973.128494,599616065755120394,-32,-338,-977
6.996428,1776080973.128494,599616065755120394,-32,-334,-976
7.001428,1776080973.128494,599616065755120394,-30,-339,-978
7.006428,1776080973.128494,599616065755120394,-32,-336,-981
7.011428,1776080973.128494,599616065755120394,-32,-337,-985
7.016428,1776080973.128494,599616065755120394,-35,-337,-986
7.021428,1776080973.128494,599616065755120394,-32,-332,-982
7.026428,1776080973.128494,599616065755120394,-38,-339,-978
7.031428,1776080973.128494,599616065755120394,-40,-341,-985
7.036428,1776080973.128494,599616065755120394,-42,-343,-987
7.041428,1776080973.128494,599616065755120394,-42,-340,-992
7.042456,1776080973.171723,599616065931148208,-42,-336,-991
7.047456,1776080973.171723,599616065931148208,-40,-339,-990
7.052456,1776080973.171723,599616065931148208,-42,-344,-986
7.057456,1776080973.171723,599616065931148208,-40,-342,-990
7.062456,1776080973.171723,599616065931148208,-41,-342,-985
7.067456,1776080973.171723,599616065931148208,-38,-340,-987
7.072456,1776080973.171723,599616065931148208,-34,-337,-978
7.077456,1776080973.171723,599616065931148208,-35,-337,-975
7.082456,1776080973.171723,599616065931148208,-37,-335,-976
7.087456,1776080973.171723,599616065931148208,-37,-329,-977
7.092456,1776080973.171723,599616065931148208,-38,-329,-977
7.097456,1776080973.171723,599616065931148208,-37,-330,-980
7.102456,1776080973.171723,599616065931148208,-35,-336,-981
7.107456,1776080973.171723,599616065931148208,-34,-332,-984
7.112456,1776080973.171723,599616065931148208,-34,-337,-986
7.117456,1776080973.171723,599616065931148208,-33,-332,-985
7.122456,1776080973.171723,599616065931148208,-34,-343,-981
7.127456,1776080973.171723,599616065931148208,-35,-340,-983
7.132456,1776080973.171723,599616065931148208,-36,-343,-974
7.137456,1776080973.171723,599616065931148208,-35,-342,-982
7.142456,1776080973.171723,599616065931148208,-35,-339,-980
7.147456,1776080973.171723,599616065931148208,-36,-333,-982
7.152456,1776080973.171723,599616065931148208,-37,-333,-989
7.157456,1776080973.171723,599616065931148208,-35,-335,-988
7.162456,1776080973.171723,599616065931148208,-38,-335,-982
7.167456,1776080973.171723,599616065931148208,-38,-334,-986
7.172456,1776080973.171723,599616065931148208,-39,-339,-988
7.177456,1776080973.171723,599616065931148208,-40,-337,-991
7.182456,1776080973.171723,599616065931148208,-42,-333,-988
7.187456,1776080973.171723,599616065931148208,-43,-331,-986
7.192456,1776080973.171723,599616065931148208,-41,-329,-984
7.197456,1776080973.171723,599616065931148208,-36,-332,-984
7.202456,1776080973.171723,599616065931148208,-35,-335,-979
7.207456,1776080973.171723,599616065931148208,-33,-337,-980
7.212456,1776080973.171723,599616065931148208,-33,-336,-980
7.217456,1776080973.171723,599616065931148208,-33,-343,-978
7.218423,1776080973.353070,599616066107115012,-30,-339,-977
7.223423,1776080973.353070,599616066107115012,-30,-336,-980
7.228423,1776080973.353070,599616066107115012,-30,-336,-979
7.233423,1776080973.353070,599616066107115012,-32,-340,-974
7.238423,1776080973.353070,599616066107115012,-33,-340,-975
7.243423,1776080973.353070,599616066107115012,-35,-339,-973
7.248423,1776080973.353070,599616066107115012,-37,-340,-969
7.253422,1776080973.353070,599616066107115012,-41,-341,-976
7.258422,1776080973.353070,599616066107115012,-42,-337,-983
7.263422,1776080973.353070,599616066107115012,-43,-334,-994
7.268422,1776080973.353070,599616066107115012,-52,-335,-994
7.273422,1776080973.353070,599616066107115012,-52,-341,-993
7.278422,1776080973.353070,599616066107115012,-47,-344,-991
7.283422,1776080973.353070,599616066107115012,-39,-349,-988
7.288422,1776080973.353070,599616066107115012,-37,-346,-986
7.293422,1776080973.353070,599616066107115012,-38,-343,-987
7.298422,1776080973.353070,599616066107115012,-40,-331,-976
7.303422,1776080973.353070,599616066107115012,-49,-329,-984
7.308422,1776080973.353070,599616066107115012,-37,-332,-967
7.313422,1776080973.353070,599616066107115012,-24,-319,-986
7.318422,1776080973.353070,599616066107115012,-29,-330,-1007
7.323422,1776080973.353070,599616066107115012,-36,-342,-982
7.328422,1776080973.353070,599616066107115012,-35,-354,-953
7.333423,1776080973.353070,599616066107115012,-38,-356,-952
7.338423,1776080973.353070,599616066107115012,-31,-345,-959
7.343423,1776080973.353070,599616066107115012,-27,-334,-986
7.348423,1776080973.353070,599616066107115012,-24,-324,-990
7.353423,1776080973.353070,599616066107115012,-24,-327,-1001
7.358423,1776080973.353070,599616066107115012,-26,-336,-1003
7.363423,1776080973.353070,599616066107115012,-32,-337,-991
7.368423,1776080973.353070,599616066107115012,-40,-342,-986
7.373423,1776080973.353070,599616066107115012,-44,-350,-980
7.378422,1776080973.353070,599616066107115012,-49,-342,-972
7.383422,1776080973.353070,599616066107115012,-49,-338,-976
7.388422,1776080973.353070,599616066107115012,-48,-333,-980
7.393422,1776080973.353070,599616066107115012,-52,-332,-985
7.394328,1776080973.486883,599616066283020744,-52,-340,-990
7.399328,1776080973.486883,599616066283020744,-52,-340,-986
7.404328,1776080973.486883,599616066283020744,-51,-341,-985
7.409328,1776080973.486883,599616066283020744,-52,-342,-985
7.414328,1776080973.486883,599616066283020744,-47,-346,-980
7.419328,1776080973.486883,599616066283020744,-43,-341,-982
7.424328,1776080973.486883,599616066283020744,-37,-344,-981
7.429328,1776080973.486883,599616066283020744,-36,-343,-977
7.434328,1776080973.486883,599616066283020744,-30,-344,-971
7.439328,1776080973.486883,599616066283020744,-31,-347,-961
7.444328,1776080973.486883,599616066283020744,-31,-342,-967
7.449328,1776080973.486883,599616066283020744,-30,-342,-969
7.454328,1776080973.486883,599616066283020744,-32,-338,-971
7.459328,1776080973.486883,599616066283020744,-32,-337,-976
7.464328,1776080973.486883,599616066283020744,-33,-337,-979
7.469328,1776080973.486883,599616066283020744,-34,-332,-983
7.474328,1776080973.486883,599616066283020744,-36,-334,-988
7.479328,1776080973.486883,599616066283020744,-37,-337,-989
7.484328,1776080973.486883,599616066283020744,-40,-344,-985
7.489328,1776080973.486883,599616066283020744,-38,-350,-988
7.494328,1776080973.486883,599616066283020744,-37,-342,-989
7.499328,1776080973.486883,599616066283020744,-30,-336,-987
7.504328,1776080973.486883,599616066283020744,-39,-339,-995
7.509328,1776080973.486883,599616066283020744,-82,-343,-976
7.514328,1776080973.486883,599616066283020744,-49,-309,-991
7.519328,1776080973.486883,599616066283020744,-28,-322,-1002
7.524328,1776080973.486883,599616066283020744,-24,-336,-979
7.529328,1776080973.486883,599616066283020744,-34,-339,-983
7.534328,1776080973.486883,599616066283020744,-31,-338,-983
7.539328,1776080973.486883,599616066283020744,-26,-336,-983
7.544328,1776080973.486883,599616066283020744,-28,-333,-984
7.549328,1776080973.486883,599616066283020744,-29,-330,-987
7.554328,1776080973.486883,599616066283020744,-32,-329,-982
7.559328,1776080973.486883,599616066283020744,-33,-328,-982
7.564328,1776080973.486883,599616066283020744,-32,-326,-984
7.569328,1776080973.486883,599616066283020744,-30,-332,-979
7.570417,1776080973.668295,599616066459109628,-39,-343,-975
7.575417,1776080973.668295,599616066459109628,-40,-346,-974
7.580417,1776080973.668295,599616066459109628,-44,-347,-977
7.585417,1776080973.668295,599616066459109628,-46,-346,-974
7.590417,1776080973.668295,599616066459109628,-47,-347,-986
7.595417,1776080973.668295,599616066459109628,-47,-338,-984
7.600417,1776080973.668295,599616066459109628,-47,-339,-983
7.605417,1776080973.668295,599616066459109628,-45,-339,-981
7.610417,1776080973.668295,599616066459109628,-41,-341,-985
7.615417,1776080973.668295,599616066459109628,-39,-345,-976
7.620417,1776080973.668295,599616066459109628,-34,-345,-979
7.625417,1776080973.668295,599616066459109628,-35,-337,-984
7.630417,1776080973.668295,599616066459109628,-32,-333,-990
7.635417,1776080973.668295,599616066459109628,-35,-326,-988
7.640417,1776080973.668295,599616066459109628,-35,-326,-982
7.645417,1776080973.668295,599616066459109628,-37,-336,-981
7.650417,1776080973.668295,599616066459109628,-36,-340,-978
7.655417,1776080973.668295,599616066459109628,-38,-346,-980
7.660417,1776080973.668295,599616066459109628,-36,-342,-980
7.665417,1776080973.668295,599616066459109628,-35,-353,-978
7.670417,1776080973.668295,599616066459109628,-31,-348,-978
7.675417,1776080973.668295,599616066459109628,-35,-338,-983
7.680417,1776080973.668295,599616066459109628,-35,-338,-981
7.685417,1776080973.668295,599616066459109628,-36,-332,-988
7.690417,1776080973.668295,599616066459109628,-33,-333,-983
7.695417,1776080973.668295,599616066459109628,-35,-333,-980
7.700417,1776080973.668295,599616066459109628,-36,-334,-980
7.705417,1776080973.668295,599616066459109628,-39,-337,-978
7.710417,1776080973.668295,599616066459109628,-38,-337,-981
7.715417,1776080973.668295,599616066459109628,-37,-342,-981
7.720417,1776080973.668295,599616066459109628,-37,-346,-985
7.725417,1776080973.668295,599616066459109628,-37,-339,-981
7.730417,1776080973.668295,599616066459109628,-36,-347,-978
7.735417,1776080973.668295,599616066459109628,-37,-338,-978
7.740417,1776080973.668295,599616066459109628,-41,-345,-977
7.745417,1776080973.668295,599616066459109628,-41,-344,-983
7.746536,1776080973.847520,599616066635228980,-40,-339,-980
7.751536,1776080973.847520,599616066635228980,-39,-344,-981
7.756536,1776080973.847520,599616066635228980,-40,-336,-978
7.761536,1776080973.847520,599616066635228980,-40,-334,-975
7.766536,1776080973.847520,599616066635228980,-39,-336,-977
7.771536,1776080973.847520,599616066635228980,-38,-333,-976
7.776536,1776080973.847520,599616066635228980,-39,-334,-979
7.781536,1776080973.847520,599616066635228980,-39,-331,-980
7.786536,1776080973.847520,599616066635228980,-38,-342,-984
7.791536,1776080973.847520,599616066635228980,-35,-341,-983
7.796536,1776080973.847520,599616066635228980,-36,-340,-980
7.801536,1776080973.847520,599616066635228980,-35,-340,-982
7.806536,1776080973.847520,599616066635228980,-34,-344,-980
7.811536,1776080973.847520,599616066635228980,-35,-350,-986
7.816536,1776080973.847520,599616066635228980,-36,-343,-986
7.821536,1776080973.847520,599616066635228980,-38,-341,-985
7.826536,1776080973.847520,599616066635228980,-39,-334,-991
7.831536,1776080973.847520,599616066635228980,-39,-337,-984
7.836536,1776080973.847520,599616066635228980,-40,-342,-980
7.841536,1776080973.847520,599616066635228980,-40,-341,-978
7.846536,1776080973.847520,599616066635228980,-38,-339,-974
7.851536,1776080973.847520,599616066635228980,-37,-339,-974
7.856536,1776080973.847520,599616066635228980,-40,-337,-976
7.861536,1776080973.847520,599616066635228980,-38,-337,-974
7.866536,1776080973.847520,599616066635228980,-40,-333,-976
7.871536,1776080973.847520,599616066635228980,-43,-331,-984
7.876536,1776080973.847520,599616066635228980,-40,-334,-977
7.881536,1776080973.847520,599616066635228980,-36,-338,-970
7.886536,1776080973.847520,599616066635228980,-37,-345,-977
7.891536,1776080973.847520,599616066635228980,-35,-344,-981
7.896536,1776080973.847520,599616066635228980,-35,-340,-988
7.901536,1776080973.847520,599616066635228980,-36,-337,-985
7.906536,1776080973.847520,599616066635228980,-37,-339,-987
7.911536,1776080973.847520,599616066635228980,-38,-340,-989
7.916536,1776080973.847520,599616066635228980,-45,-342,-986
7.921536,1776080973.847520,599616066635228980,-45,-345,-988
7.922656,1776080974.028312,599616066811348358,-43,-342,-982
7.927656,1776080974.028312,599616066811348358,-45,-345,-984
7.932656,1776080974.028312,599616066811348358,-41,-348,-982
7.937656,1776080974.028312,599616066811348358,-43,-344,-987
7.942656,1776080974.028312,599616066811348358,-37,-343,-986
7.947656,1776080974.028312,599616066811348358,-36,-337,-980
7.952656,1776080974.028312,599616066811348358,-37,-337,-981
7.957656,1776080974.028312,599616066811348358,-36,-342,-977
7.962656,1776080974.028312,599616066811348358,-35,-341,-978
7.967656,1776080974.028312,599616066811348358,-35,-345,-974
7.972656,1776080974.028312,599616066811348358,-32,-336,-974
7.977656,1776080974.028312,599616066811348358,-32,-339,-976
7.982656,1776080974.028312,599616066811348358,-34,-339,-979
7.987656,1776080974.028312,599616066811348358,-35,-331,-976
7.992656,1776080974.028312,599616066811348358,-39,-330,-974
7.997656,1776080974.028312,599616066811348358,-38,-333,-977
8.002656,1776080974.028312,599616066811348358,-40,-337,-983
8.007656,1776080974.028312,599616066811348358,-45,-331,-984
8.012656,1776080974.028312,599616066811348358,-46,-330,-982
8.017656,1776080974.028312,599616066811348358,-47,-333,-989
8.022656,1776080974.028312,599616066811348358,-45,-338,-984
8.027656,1776080974.028312,599616066811348358,-39,-337,-983
8.032656,1776080974.028312,599616066811348358,-37,-334,-986
8.037656,1776080974.028312,599616066811348358,-34,-335,-983
8.042656,1776080974.028312,599616066811348358,-33,-340,-988
8.047656,1776080974.028312,599616066811348358,-34,-342,-990
8.052656,1776080974.028312,599616066811348358,-35,-349,-983
8.057656,1776080974.028312,599616066811348358,-32,-352,-986
8.062656,1776080974.028312,599616066811348358,-35,-349,-985
8.067656,1776080974.028312,599616066811348358,-35,-350,-973
8.072656,1776080974.028312,599616066811348358,-36,-347,-971
8.077656,1776080974.028312,599616066811348358,-39,-351,-975
8.082656,1776080974.028312,599616066811348358,-39,-351,-974
8.087656,1776080974.028312,599616066811348358,-39,-343,-976
8.092656,1776080974.028312,599616066811348358,-36,-340,-976
8.097656,1776080974.028312,599616066811348358,-40,-340,-976
8.098745,1776080974.253364,599616066987437244,-36,-334,-971
8.103745,1776080974.253364,599616066987437244,-34,-334,-966
8.108745,1776080974.253364,599616066987437244,-34,-334,-968
8.113745,1776080974.253364,599616066987437244,-35,-337,-971
8.118745,1776080974.253364,599616066987437244,-38,-331,-978
8.123745,1776080974.253364,599616066987437244,-40,-333,-984
8.128745,1776080974.253364,599616066987437244,-42,-339,-988
8.133745,1776080974.253364,599616066987437244,-43,-342,-986
8.138745,1776080974.253364,599616066987437244,-46,-352,-980
8.143745,1776080974.253364,599616066987437244,-43,-353,-974
8.148745,1776080974.253364,599616066987437244,-39,-356,-974
8.153745,1776080974.253364,599616066987437244,-42,-361,-974
8.158745,1776080974.253364,599616066987437244,-43,-357,-972
8.163745,1776080974.253364,599616066987437244,-41,-352,-975
8.168745,1776080974.253364,599616066987437244,-42,-346,-984
8.173745,1776080974.253364,599616066987437244,-38,-339,-982
8.178745,1776080974.253364,599616066987437244,-34,-339,-983
8.183745,1776080974.253364,599616066987437244,-34,-335,-977
8.188745,1776080974.253364,599616066987437244,-38,-337,-975
8.193745,1776080974.253364,599616066987437244,-37,-336,-975
8.198745,1776080974.253364,599616066987437244,-35,-336,-983
8.203745,1776080974.253364,599616066987437244,-38,-343,-981
8.208745,1776080974.253364,599616066987437244,-39,-342,-983
8.213745,1776080974.253364,599616066987437244,-36,-347,-982
8.218745,1776080974.253364,599616066987437244,-34,-349,-982
8.223745,1776080974.253364,599616066987437244,-36,-350,-981
8.228745,1776080974.253364,599616066987437244,-35,-349,-977
8.233745,1776080974.253364,599616066987437244,-39,-350,-979
8.238745,1776080974.253364,599616066987437244,-39,-352,-974
8.243745,1776080974.253364,599616066987437244,-45,-346,-981
8.248745,1776080974.253364,599616066987437244,-46,-348,-977
8.253745,1776080974.253364,599616066987437244,-46,-348,-979
8.258745,1776080974.253364,599616066987437244,-44,-345,-973
8.263745,1776080974.253364,599616066987437244,-44,-350,-980
8.268745,1776080974.253364,599616066987437244,-42,-352,-983
8.273745,1776080974.253364,599616066987437244,-39,-352,-976
8.274834,1776080974.388179,599616067163526104,-44,-344,-978
8.279834,1776080974.388179,599616067163526104,-42,-341,-985
8.284834,1776080974.388179,599616067163526104,-42,-338,-980
8.289834,1776080974.388179,599616067163526104,-44,-342,-990
8.294834,1776080974.388179,599616067163526104,-42,-342,-990
8.299834,1776080974.388179,599616067163526104,-45,-344,-990
8.304834,1776080974.388179,599616067163526104,-43,-351,-987
8.309834,1776080974.388179,599616067163526104,-43,-345,-977
8.314834,1776080974.388179,599616067163526104,-42,-346,-969
8.319834,1776080974.388179,599616067163526104,-45,-347,-970
8.324834,1776080974.388179,599616067163526104,-51,-350,-967
8.329834,1776080974.388179,599616067163526104,-32,-342,-963
8.334834,1776080974.388179,599616067163526104,-26,-332,-986
8.339834,1776080974.388179,599616067163526104,-33,-348,-993
8.344834,1776080974.388179,599616067163526104,-36,-355,-967
8.349834,1776080974.388179,599616067163526104,-37,-359,-953
8.354834,1776080974.388179,599616067163526104,-42,-361,-965
8.359834,1776080974.388179,599616067163526104,-38,-338,-985
8.364834,1776080974.388179,599616067163526104,-30,-330,-1000
8.369834,1776080974.388179,599616067163526104,-27,-331,-1004
8.374834,1776080974.388179,599616067163526104,-27,-335,-1006
8.379834,1776080974.388179,599616067163526104,-29,-344,-998
8.384834,1776080974.388179,599616067163526104,-34,-351,-982
8.389834,1776080974.388179,599616067163526104,-42,-353,-972
8.394834,1776080974.388179,599616067163526104,-49,-352,-962
8.399834,1776080974.388179,599616067163526104,-52,-348,-964
8.404834,1776080974.388179,599616067163526104,-56,-344,-971
8.409834,1776080974.388179,599616067163526104,-57,-343,-975
8.414834,1776080974.388179,599616067163526104,-55,-341,-981
8.419834,1776080974.388179,599616067163526104,-56,-339,-977
8.424834,1776080974.388179,599616067163526104,-53,-346,-980
8.429834,1776080974.388179,599616067163526104,-52,-346,-968
8.434834,1776080974.388179,599616067163526104,-49,-350,-964
8.439834,1776080974.388179,599616067163526104,-49,-352,-975
8.444834,1776080974.388179,599616067163526104,-49,-351,-972
8.449834,1776080974.388179,599616067163526104,-43,-354,-976
8.450922,1776080974.567738,599616067339614964,-47,-349,-978
8.455922,1776080974.567738,599616067339614964,-42,-343,-980
8.460922,1776080974.567738,599616067339614964,-40,-346,-980
8.465922,1776080974.567738,599616067339614964,-38,-344,-983
8.470922,1776080974.567738,599616067339614964,-37,-349,-980
8.475922,1776080974.567738,599616067339614964,-37,-351,-979
8.480922,1776080974.567738,599616067339614964,-34,-349,-979
8.485922,1776080974.567738,599616067339614964,-33,-347,-977
8.490922,1776080974.567738,599616067339614964,-33,-343,-975
8.495922,1776080974.567738,599616067339614964,-33,-342,-977
8.500922,1776080974.567738,599616067339614964,-34,-344,-979
8.505922,1776080974.567738,599616067339614964,-33,-345,-977
8.510922,1776080974.567738,599616067339614964,-36,-345,-975
8.515922,1776080974.567738,599616067339614964,-37,-351,-978
8.520922,1776080974.567738,599616067339614964,-35,-357,-972
8.525922,1776080974.567738,599616067339614964,-32,-356,-967
8.530922,1776080974.567738,599616067339614964,-65,-365,-957
8.535922,1776080974.567738,599616067339614964,-66,-338,-962
8.540922,1776080974.567738,599616067339614964,-40,-312,-1009
8.545922,1776080974.567738,599616067339614964,-30,-324,-988
8.550922,1776080974.567738,599616067339614964,-38,-336,-984
8.555922,1776080974.567738,599616067339614964,-49,-332,-992
8.560922,1776080974.567738,599616067339614964,-42,-336,-986
8.565922,1776080974.567738,599616067339614964,-36,-338,-985
8.570922,1776080974.567738,599616067339614964,-37,-343,-983
8.575922,1776080974.567738,599616067339614964,-39,-348,-974
8.580922,1776080974.567738,599616067339614964,-40,-344,-972
8.585922,1776080974.567738,599616067339614964,-35,-345,-973
8.590922,1776080974.567738,599616067339614964,-32,-349,-978
8.595922,1776080974.567738,599616067339614964,-35,-349,-980
8.600922,1776080974.567738,599616067339614964,-45,-350,-979
8.605922,1776080974.567738,599616067339614964,-47,-356,-975
8.610922,1776080974.567738,599616067339614964,-45,-360,-980
8.615922,1776080974.567738,599616067339614964,-49,-352,-983
8.620922,1776080974.567738,599616067339614964,-50,-353,-985
8.625922,1776080974.567738,599616067339614964,-52,-343,-988
8.626981,1776080974.748784,599616067515673296,-56,-343,-986
8.631981,1776080974.748784,599616067515673296,-50,-344,-975
8.636981,1776080974.748784,599616067515673296,-43,-341,-977
8.641981,1776080974.748784,599616067515673296,-38,-340,-971
8.646981,1776080974.748784,599616067515673296,-33,-340,-982
8.651981,1776080974.748784,599616067515673296,-30,-339,-984
8.656981,1776080974.748784,599616067515673296,-32,-342,-984
8.661981,1776080974.748784,599616067515673296,-32,-339,-988
8.666981,1776080974.748784,599616067515673296,-32,-345,-983
8.671981,1776080974.748784,599616067515673296,-35,-348,-977
8.676981,1776080974.748784,599616067515673296,-37,-343,-975
8.681981,1776080974.748784,599616067515673296,-38,-340,-976
8.686981,1776080974.748784,599616067515673296,-38,-342,-981
8.691981,1776080974.748784,599616067515673296,-37,-344,-976
8.696981,1776080974.748784,599616067515673296,-38,-344,-980
8.701981,1776080974.748784,599616067515673296,-38,-341,-977
8.706981,1776080974.748784,599616067515673296,-37,-333,-975
8.711981,1776080974.748784,599616067515673296,-39,-330,-976
8.716981,1776080974.748784,599616067515673296,-37,-334,-980
8.721981,1776080974.748784,599616067515673296,-38,-336,-981
8.726981,1776080974.748784,599616067515673296,-39,-334,-981
8.731981,1776080974.748784,599616067515673296,-39,-339,-983
8.736981,1776080974.748784,599616067515673296,-38,-335,-980
8.741981,1776080974.748784,599616067515673296,-38,-341,-983
8.746981,1776080974.748784,599616067515673296,-38,-336,-980
8.751981,1776080974.748784,599616067515673296,-35,-343,-979
8.756981,1776080974.748784,599616067515673296,-34,-345,-982
8.761981,1776080974.748784,599616067515673296,-36,-348,-981
8.766981,1776080974.748784,599616067515673296,-41,-343,-989
8.771981,1776080974.748784,599616067515673296,-43,-348,-985
8.776981,1776080974.748784,599616067515673296,-43,-345,-987
8.781981,1776080974.748784,599616067515673296,-47,-349,-983
8.786981,1776080974.748784,599616067515673296,-47,-350,-976
8.791981,1776080974.748784,599616067515673296,-46,-353,-975
8.796981,1776080974.748784,599616067515673296,-42,-348,-974
8.801981,1776080974.748784,599616067515673296,-42,-341,-983
8.803070,1776080974.927370,599616067691762166,-43,-332,-987
8.808070,1776080974.927370,599616067691762166,-40,-334,-989
8.813070,1776080974.927370,599616067691762166,-41,-333,-990
8.818070,1776080974.927370,599616067691762166,-42,-335,-980
8.823070,1776080974.927370,599616067691762166,-43,-340,-973
8.828070,1776080974.927370,599616067691762166,-39,-343,-972
8.833070,1776080974.927370,599616067691762166,-35,-356,-972
8.838070,1776080974.927370,599616067691762166,-33,-354,-977
8.843070,1776080974.927370,599616067691762166,-31,-350,-976
8.848070,1776080974.927370,599616067691762166,-34,-345,-986
8.853070,1776080974.927370,599616067691762166,-34,-342,-981
8.858070,1776080974.927370,599616067691762166,-34,-339,-974
8.863070,1776080974.927370,599616067691762166,-32,-337,-980
8.868070,1776080974.927370,599616067691762166,-36,-330,-986
8.873070,1776080974.927370,599616067691762166,-39,-329,-991
8.878070,1776080974.927370,599616067691762166,-41,-331,-986
8.883070,1776080974.927370,599616067691762166,-42,-339,-983
8.888070,1776080974.927370,599616067691762166,-44,-336,-984
8.893070,1776080974.927370,599616067691762166,-43,-340,-985
8.898070,1776080974.927370,599616067691762166,-42,-336,-984
8.903070,1776080974.927370,599616067691762166,-44,-334,-990
8.908070,1776080974.927370,599616067691762166,-47,-335,-989
8.913070,1776080974.927370,599616067691762166,-40,-333,-990
8.918070,1776080974.927370,599616067691762166,-37,-330,-980
8.923070,1776080974.927370,599616067691762166,-31,-335,-979
8.928070,1776080974.927370,599616067691762166,-30,-341,-975
8.933070,1776080974.927370,599616067691762166,-27,-343,-976
8.938070,1776080974.927370,599616067691762166,-26,-344,-974
8.943070,1776080974.927370,599616067691762166,-28,-347,-978
8.948070,1776080974.927370,599616067691762166,-30,-345,-984
8.953070,1776080974.927370,599616067691762166,-33,-345,-983
8.958070,1776080974.927370,599616067691762166,-36,-338,-979
8.963070,1776080974.927370,599616067691762166,-42,-334,-979
8.968070,1776080974.927370,599616067691762166,-43,-336,-976
8.973070,1776080974.927370,599616067691762166,-46,-334,-986
8.978070,1776080974.927370,599616067691762166,-47,-332,-985
8.979159,1776080975.106838,599616067867851026,-49,-330,-982
8.984159,1776080975.106838,599616067867851026,-46,-334,-983
8.989159,1776080975.106838,599616067867851026,-50,-340,-985
8.994159,1776080975.106838,599616067867851026,-46,-343,-984
8.999159,1776080975.106838,599616067867851026,-47,-344,-979
9.004158,1776080975.106838,599616067867851026,-44,-343,-981
9.009158,1776080975.106838,599616067867851026,-42,-343,-980
9.014158,1776080975.106838,599616067867851026,-41,-355,-974
9.019158,1776080975.106838,599616067867851026,-42,-358,-971
9.024158,1776080975.106838,599616067867851026,-43,-354,-974
9.029158,1776080975.106838,599616067867851026,-42,-349,-977
9.034158,1776080975.106838,599616067867851026,-43,-345,-979
9.039158,1776080975.106838,599616067867851026,-40,-343,-977
9.044158,1776080975.106838,599616067867851026,-40,-338,-980
9.049158,1776080975.106838,599616067867851026,-40,-332,-979
9.054158,1776080975.106838,599616067867851026,-41,-322,-987
9.059158,1776080975.106838,599616067867851026,-40,-328,-988
9.064158,1776080975.106838,599616067867851026,-40,-333,-981
9.069158,1776080975.106838,599616067867851026,-39,-344,-978
9.074158,1776080975.106838,599616067867851026,-37,-344,-980
9.079158,1776080975.106838,599616067867851026,-43,-339,-978
9.084158,1776080975.106838,599616067867851026,-42,-338,-976
9.089158,1776080975.106838,599616067867851026,-53,-332,-992
9.094159,1776080975.106838,599616067867851026,-45,-328,-975
9.099159,1776080975.106838,599616067867851026,-26,-325,-992
9.104159,1776080975.106838,599616067867851026,-27,-333,-991
9.109159,1776080975.106838,599616067867851026,-36,-344,-991
9.114159,1776080975.106838,599616067867851026,-32,-351,-972
9.119159,1776080975.106838,599616067867851026,-37,-362,-951
9.124159,1776080975.106838,599616067867851026,-42,-351,-965
9.129158,1776080975.106838,599616067867851026,-40,-324,-980
9.134158,1776080975.106838,599616067867851026,-35,-317,-992
9.139158,1776080975.106838,599616067867851026,-29,-323,-997
9.144158,1776080975.106838,599616067867851026,-30,-332,-1001
9.149158,1776080975.106838,599616067867851026,-30,-340,-998
9.154158,1776080975.106838,599616067867851026,-38,-349,-991
9.155217,1776080975.288614,599616068043909358,-50,-350,-984
9.160217,1776080975.288614,599616068043909358,-51,-346,-975
9.165217,1776080975.288614,599616068043909358,-57,-346,-980
9.170217,1776080975.288614,599616068043909358,-56,-346,-980
9.175217,1776080975.288614,599616068043909358,-53,-342,-986
9.180217,1776080975.288614,599616068043909358,-50,-338,-985
9.185217,1776080975.288614,599616068043909358,-47,-344,-984
9.190217,1776080975.288614,599616068043909358,-44,-345,-977
9.195217,1776080975.288614,599616068043909358,-43,-344,-974
9.200217,1776080975.288614,599616068043909358,-44,-337,-973
9.205217,1776080975.288614,599616068043909358,-41,-340,-979
9.210217,1776080975.288614,599616068043909358,-39,-337,-980
9.215217,1776080975.288614,599616068043909358,-41,-337,-980
9.220217,1776080975.288614,599616068043909358,-38,-339,-980
9.225217,1776080975.288614,599616068043909358,-39,-338,-980
9.230217,1776080975.288614,599616068043909358,-38,-343,-972
9.235217,1776080975.288614,599616068043909358,-42,-341,-975
9.240217,1776080975.288614,599616068043909358,-47,-344,-968
9.245217,1776080975.288614,599616068043909358,-50,-335,-966
9.250217,1776080975.288614,599616068043909358,-46,-340,-969
9.255217,1776080975.288614,599616068043909358,-49,-333,-977
9.260217,1776080975.288614,599616068043909358,-43,-337,-990
9.265217,1776080975.288614,599616068043909358,-39,-340,-988
9.270217,1776080975.288614,599616068043909358,-41,-342,-990
9.275217,1776080975.288614,599616068043909358,-40,-340,-991
9.280217,1776080975.288614,599616068043909358,-38,-344,-992
9.285217,1776080975.288614,599616068043909358,-33,-349,-986
9.290217,1776080975.288614,599616068043909358,-29,-345,-980
9.295217,1776080975.288614,599616068043909358,-54,-363,-997
9.300217,1776080975.288614,599616068043909358,-73,-336,-972
9.305217,1776080975.288614,599616068043909358,-32,-305,-1003
9.310217,1776080975.288614,599616068043909358,-25,-317,-989
9.315217,1776080975.288614,599616068043909358,-28,-331,-971
9.320217,1776080975.288614,599616068043909358,-35,-330,-981
9.325217,1776080975.288614,599616068043909358,-38,-336,-988
9.330217,1776080975.288614,599616068043909358,-37,-335,-982
9.331275,1776080975.466907,599616068219967700,-35,-336,-977
9.336275,1776080975.466907,599616068219967700,-42,-341,-981
9.341275,1776080975.466907,599616068219967700,-39,-338,-976
9.346275,1776080975.466907,599616068219967700,-38,-341,-978
9.351275,1776080975.466907,599616068219967700,-35,-337,-982
9.356275,1776080975.466907,599616068219967700,-37,-335,-982
9.361275,1776080975.466907,599616068219967700,-42,-343,-980
9.366275,1776080975.466907,599616068219967700,-52,-349,-971
9.371275,1776080975.466907,599616068219967700,-52,-358,-968
9.376275,1776080975.466907,599616068219967700,-47,-362,-973
9.381275,1776080975.466907,599616068219967700,-45,-350,-986
9.386275,1776080975.466907,599616068219967700,-44,-351,-981
9.391275,1776080975.466907,599616068219967700,-47,-341,-980
9.396275,1776080975.466907,599616068219967700,-48,-334,-980
9.401275,1776080975.466907,599616068219967700,-47,-339,-977
9.406275,1776080975.466907,599616068219967700,-40,-340,-975
9.411275,1776080975.466907,599616068219967700,-35,-336,-981
9.416275,1776080975.466907,599616068219967700,-32,-338,-983
9.421275,1776080975.466907,599616068219967700,-32,-341,-990
9.426275,1776080975.466907,599616068219967700,-34,-336,-992
9.431275,1776080975.466907,599616068219967700,-37,-339,-990
9.436275,1776080975.466907,599616068219967700,-38,-344,-988
9.441275,1776080975.466907,599616068219967700,-44,-340,-980
9.446275,1776080975.466907,599616068219967700,-43,-342,-984
9.451275,1776080975.466907,599616068219967700,-46,-345,-982
9.456275,1776080975.466907,599616068219967700,-50,-343,-980
9.461275,1776080975.466907,599616068219967700,-50,-345,-978
9.466275,1776080975.466907,599616068219967700,-51,-353,-973
9.471275,1776080975.466907,599616068219967700,-49,-351,-975
9.476275,1776080975.466907,599616068219967700,-50,-347,-973
9.481275,1776080975.466907,599616068219967700,-47,-342,-977
9.486275,1776080975.466907,599616068219967700,-40,-339,-977
9.491275,1776080975.466907,599616068219967700,-36,-338,-976
9.496275,1776080975.466907,599616068219967700,-34,-341,-978
9.501275,1776080975.466907,599616068219967700,-31,-342,-981
9.506275,1776080975.466907,599616068219967700,-31,-342,-974
9.507364,1776080975.604598,599616068396056570,-36,-347,-973
9.512364,1776080975.604598,599616068396056570,-34,-342,-975
9.517364,1776080975.604598,599616068396056570,-36,-337,-980
9.522364,1776080975.604598,599616068396056570,-36,-343,-978
9.527364,1776080975.604598,599616068396056570,-36,-345,-983
9.532364,1776080975.604598,599616068396056570,-36,-341,-978
9.537364,1776080975.604598,599616068396056570,-38,-338,-981
9.542364,1776080975.604598,599616068396056570,-39,-346,-981
9.547364,1776080975.604598,599616068396056570,-42,-340,-986
9.552364,1776080975.604598,599616068396056570,-46,-350,-985
9.557364,1776080975.604598,599616068396056570,-52,-347,-979
9.562364,1776080975.604598,599616068396056570,-51,-341,-982
9.567364,1776080975.604598,599616068396056570,-48,-345,-982
9.572364,1776080975.604598,599616068396056570,-45,-345,-985
9.577364,1776080975.604598,599616068396056570,-40,-338,-983
9.582364,1776080975.604598,599616068396056570,-39,-336,-980
9.587364,1776080975.604598,599616068396056570,-34,-339,-984
9.592364,1776080975.604598,599616068396056570,-31,-336,-989
9.597364,1776080975.604598,599616068396056570,-30,-340,-983
9.602364,1776080975.604598,599616068396056570,-31,-346,-985
9.607364,1776080975.604598,599616068396056570,-30,-348,-984
