time,t_wall,t_device_ns,x,y,z
0.000000,1775668802.196383,599617623068915252,-948,-72,349
0.005000,1775668802.196383,599617623068915252,-940,-72,351
0.010000,1775668802.196383,599617623068915252,-937,-78,358
0.015000,1775668802.196383,599617623068915252,-937,-75,358
0.020000,1775668802.196383,599617623068915252,-934,-78,363
0.025000,1775668802.196383,599617623068915252,-940,-84,355
0.030000,1775668802.196383,599617623068915252,-935,-84,349
0.035000,1775668802.196383,599617623068915252,-938,-87,350
0.040000,1775668802.196383,599617623068915252,-936,-91,354
0.045000,1775668802.196383,599617623068915252,-932,-89,363
0.050000,1775668802.196383,599617623068915252,-936,-88,367
0.055000,1775668802.196383,599617623068915252,-943,-90,372
0.060000,1775668802.196383,599617623068915252,-950,-97,367
0.065000,1775668802.196383,599617623068915252,-958,-93,376
0.070000,1775668802.196383,599617623068915252,-968,-92,382
0.075000,1775668802.196383,599617623068915252,-976,-94,388
0.080000,1775668802.196383,599617623068915252,-982,-95,389
0.085000,1775668802.196383,599617623068915252,-983,-95,385
0.090000,1775668802.196383,599617623068915252,-988,-97,375
0.095000,1775668802.196383,599617623068915252,-983,-100,361
0.100000,1775668802.196383,599617623068915252,-974,-93,366
0.105000,1775668802.196383,599617623068915252,-964,-89,364
0.110000,1775668802.196383,599617623068915252,-952,-83,361
0.115000,1775668802.196383,599617623068915252,-943,-73,369
0.120000,1775668802.196383,599617623068915252,-929,-71,367
0.125000,1775668802.196383,599617623068915252,-930,-66,376
0.130000,1775668802.196383,599617623068915252,-924,-67,372
0.135000,1775668802.196383,599617623068915252,-925,-68,372
0.140000,1775668802.196383,599617623068915252,-927,-63,367
0.145000,1775668802.196383,599617623068915252,-924,-65,370
0.150000,1775668802.196383,599617623068915252,-927,-60,367
0.155000,1775668802.196383,599617623068915252,-923,-59,365
0.160000,1775668802.196383,599617623068915252,-919,-63,369
0.165000,1775668802.196383,599617623068915252,-919,-64,377
0.170000,1775668802.196383,599617623068915252,-918,-64,385
0.175000,1775668802.196383,599617623068915252,-919,-69,385
0.176211,1775668802.375867,599617623245126194,-921,-73,386
0.181211,1775668802.375867,599617623245126194,-928,-65,382
0.186211,1775668802.375867,599617623245126194,-932,-66,369
0.191211,1775668802.375867,599617623245126194,-941,-61,372
0.196211,1775668802.375867,599617623245126194,-954,-59,362
0.201211,1775668802.375867,599617623245126194,-958,-54,355
0.206211,1775668802.375867,599617623245126194,-959,-51,357
0.211211,1775668802.375867,599617623245126194,-963,-48,355
0.216211,1775668802.375867,599617623245126194,-958,-47,354
0.221211,1775668802.375867,599617623245126194,-951,-43,355
0.226211,1775668802.375867,599617623245126194,-947,-47,349
0.231211,1775668802.375867,599617623245126194,-936,-42,351
0.236211,1775668802.375867,599617623245126194,-933,-41,357
0.241211,1775668802.375867,599617623245126194,-923,-38,359
0.246211,1775668802.375867,599617623245126194,-918,-34,368
0.251211,1775668802.375867,599617623245126194,-915,-29,366
0.256211,1775668802.375867,599617623245126194,-918,-23,362
0.261211,1775668802.375867,599617623245126194,-918,-20,359
0.266211,1775668802.375867,599617623245126194,-919,-16,358
0.271211,1775668802.375867,599617623245126194,-918,-16,352
0.276211,1775668802.375867,599617623245126194,-914,-12,350
0.281211,1775668802.375867,599617623245126194,-915,-9,341
0.286211,1775668802.375867,599617623245126194,-915,-10,333
0.291211,1775668802.375867,599617623245126194,-913,-6,323
0.296211,1775668802.375867,599617623245126194,-910,-1,328
0.301211,1775668802.375867,599617623245126194,-911,1,322
0.306211,1775668802.375867,599617623245126194,-912,2,315
0.311211,1775668802.375867,599617623245126194,-914,4,317
0.316211,1775668802.375867,599617623245126194,-919,7,308
0.321211,1775668802.375867,599617623245126194,-922,6,299
0.326211,1775668802.375867,599617623245126194,-926,8,293
0.331211,1775668802.375867,599617623245126194,-930,5,291
0.336211,1775668802.375867,599617623245126194,-932,5,286
0.341211,1775668802.375867,599617623245126194,-931,6,283
0.346211,1775668802.375867,599617623245126194,-924,4,285
0.351211,1775668802.375867,599617623245126194,-928,0,289
0.352422,1775668802.557910,599617623421337126,-935,2,296
0.357422,1775668802.557910,599617623421337126,-940,0,299
0.362422,1775668802.557910,599617623421337126,-943,1,298
0.367422,1775668802.557910,599617623421337126,-944,4,293
0.372422,1775668802.557910,599617623421337126,-945,0,293
0.377422,1775668802.557910,599617623421337126,-948,-1,288
0.382422,1775668802.557910,599617623421337126,-954,-1,284
0.387422,1775668802.557910,599617623421337126,-952,-3,278
0.392422,1775668802.557910,599617623421337126,-954,-4,271
0.397422,1775668802.557910,599617623421337126,-956,-5,263
0.402422,1775668802.557910,599617623421337126,-963,-6,253
0.407422,1775668802.557910,599617623421337126,-960,-5,252
0.412422,1775668802.557910,599617623421337126,-955,-5,255
0.417422,1775668802.557910,599617623421337126,-950,-5,265
0.422422,1775668802.557910,599617623421337126,-948,-7,269
0.427422,1775668802.557910,599617623421337126,-946,-3,274
0.432422,1775668802.557910,599617623421337126,-949,-5,278
0.437422,1775668802.557910,599617623421337126,-953,-5,277
0.442422,1775668802.557910,599617623421337126,-954,-10,274
0.447422,1775668802.557910,599617623421337126,-952,-8,272
0.452422,1775668802.557910,599617623421337126,-960,-4,265
0.457422,1775668802.557910,599617623421337126,-968,-2,262
0.462422,1775668802.557910,599617623421337126,-974,0,253
0.467422,1775668802.557910,599617623421337126,-978,3,250
0.472422,1775668802.557910,599617623421337126,-976,0,240
0.477422,1775668802.557910,599617623421337126,-978,3,232
0.482422,1775668802.557910,599617623421337126,-980,6,230
0.487422,1775668802.557910,599617623421337126,-979,9,232
0.492422,1775668802.557910,599617623421337126,-984,12,231
0.497422,1775668802.557910,599617623421337126,-988,11,225
0.502422,1775668802.557910,599617623421337126,-989,16,222
0.507422,1775668802.557910,599617623421337126,-994,16,226
0.512422,1775668802.557910,599617623421337126,-994,16,222
0.517422,1775668802.557910,599617623421337126,-1000,16,220
0.522422,1775668802.557910,599617623421337126,-995,16,224
0.527422,1775668802.557910,599617623421337126,-997,13,229
0.528633,1775668802.784405,599617623597548058,-997,14,228
0.533633,1775668802.784405,599617623597548058,-996,12,228
0.538633,1775668802.784405,599617623597548058,-996,9,230
0.543633,1775668802.784405,599617623597548058,-990,7,228
0.548633,1775668802.784405,599617623597548058,-988,6,224
0.553633,1775668802.784405,599617623597548058,-986,4,229
0.558633,1775668802.784405,599617623597548058,-982,2,227
0.563633,1775668802.784405,599617623597548058,-981,0,225
0.568633,1775668802.784405,599617623597548058,-980,2,225
0.573633,1775668802.784405,599617623597548058,-978,4,221
0.578633,1775668802.784405,599617623597548058,-976,3,215
0.583633,1775668802.784405,599617623597548058,-974,5,210
0.588633,1775668802.784405,599617623597548058,-974,6,208
0.593633,1775668802.784405,599617623597548058,-972,9,200
0.598633,1775668802.784405,599617623597548058,-972,8,203
0.603633,1775668802.784405,599617623597548058,-973,9,197
0.608633,1775668802.784405,599617623597548058,-973,10,197
0.613633,1775668802.784405,599617623597548058,-973,14,186
0.618633,1775668802.784405,599617623597548058,-972,15,188
0.623633,1775668802.784405,599617623597548058,-976,15,184
0.628633,1775668802.784405,599617623597548058,-976,19,180
0.633633,1775668802.784405,599617623597548058,-976,19,179
0.638633,1775668802.784405,599617623597548058,-977,20,178
0.643633,1775668802.784405,599617623597548058,-978,18,179
0.648633,1775668802.784405,599617623597548058,-979,18,181
0.653633,1775668802.784405,599617623597548058,-979,15,188
0.658633,1775668802.784405,599617623597548058,-976,16,190
0.663633,1775668802.784405,599617623597548058,-978,17,188
0.668633,1775668802.784405,599617623597548058,-981,22,189
0.673633,1775668802.784405,599617623597548058,-981,20,184
0.678633,1775668802.784405,599617623597548058,-990,27,180
0.683633,1775668802.784405,599617623597548058,-986,28,172
0.688633,1775668802.784405,599617623597548058,-985,31,164
0.693633,1775668802.784405,599617623597548058,-985,30,159
0.698633,1775668802.784405,599617623597548058,-985,30,155
0.703633,1775668802.784405,599617623597548058,-975,32,157
0.704783,1775668802.916282,599617623773697934,-974,34,160
0.709783,1775668802.916282,599617623773697934,-970,37,160
0.714783,1775668802.916282,599617623773697934,-968,41,165
0.719783,1775668802.916282,599617623773697934,-970,41,165
0.724783,1775668802.916282,599617623773697934,-971,39,167
0.729783,1775668802.916282,599617623773697934,-974,44,167
0.734783,1775668802.916282,599617623773697934,-975,42,168
0.739783,1775668802.916282,599617623773697934,-979,39,168
0.744783,1775668802.916282,599617623773697934,-979,36,167
0.749783,1775668802.916282,599617623773697934,-981,34,166
0.754783,1775668802.916282,599617623773697934,-983,40,163
0.759783,1775668802.916282,599617623773697934,-983,39,163
0.764783,1775668802.916282,599617623773697934,-984,42,163
0.769783,1775668802.916282,599617623773697934,-985,47,159
0.774783,1775668802.916282,599617623773697934,-986,51,156
0.779783,1775668802.916282,599617623773697934,-987,54,150
0.784783,1775668802.916282,599617623773697934,-983,61,149
0.789783,1775668802.916282,599617623773697934,-986,53,148
0.794783,1775668802.916282,599617623773697934,-988,53,144
0.799783,1775668802.916282,599617623773697934,-985,55,137
0.804783,1775668802.916282,599617623773697934,-989,51,133
0.809783,1775668802.916282,599617623773697934,-986,51,134
0.814783,1775668802.916282,599617623773697934,-987,53,124
0.819783,1775668802.916282,599617623773697934,-989,52,117
0.824783,1775668802.916282,599617623773697934,-988,51,109
0.829783,1775668802.916282,599617623773697934,-989,53,112
0.834783,1775668802.916282,599617623773697934,-989,53,112
0.839783,1775668802.916282,599617623773697934,-995,52,108
0.844783,1775668802.916282,599617623773697934,-997,52,108
0.849783,1775668802.916282,599617623773697934,-995,55,113
0.854783,1775668802.916282,599617623773697934,-992,60,113
0.859783,1775668802.916282,599617623773697934,-992,59,112
0.864783,1775668802.916282,599617623773697934,-990,62,111
0.869783,1775668802.916282,599617623773697934,-990,66,111
0.874783,1775668802.916282,599617623773697934,-988,71,115
0.879783,1775668802.916282,599617623773697934,-988,75,117
0.880963,1775668803.140862,599617623949878358,-983,70,119
0.885963,1775668803.140862,599617623949878358,-981,78,118
0.890963,1775668803.140862,599617623949878358,-980,82,109
0.895963,1775668803.140862,599617623949878358,-986,76,108
0.900963,1775668803.140862,599617623949878358,-984,80,104
0.905963,1775668803.140862,599617623949878358,-988,81,95
0.910963,1775668803.140862,599617623949878358,-985,84,89
0.915963,1775668803.140862,599617623949878358,-986,89,77
0.920963,1775668803.140862,599617623949878358,-982,92,68
0.925963,1775668803.140862,599617623949878358,-986,91,56
0.930963,1775668803.140862,599617623949878358,-981,90,49
0.935963,1775668803.140862,599617623949878358,-982,86,42
0.940963,1775668803.140862,599617623949878358,-980,83,40
0.945963,1775668803.140862,599617623949878358,-978,81,34
0.950963,1775668803.140862,599617623949878358,-978,81,29
0.955963,1775668803.140862,599617623949878358,-983,74,22
0.960963,1775668803.140862,599617623949878358,-982,76,14
0.965963,1775668803.140862,599617623949878358,-982,77,9
0.970963,1775668803.140862,599617623949878358,-988,76,0
0.975963,1775668803.140862,599617623949878358,-990,77,-1
0.980963,1775668803.140862,599617623949878358,-992,76,-5
0.985963,1775668803.140862,599617623949878358,-999,80,-8
0.990963,1775668803.140862,599617623949878358,-998,78,-8
0.995963,1775668803.140862,599617623949878358,-1003,80,-12
1.000963,1775668803.140862,599617623949878358,-1004,84,-13
1.005963,1775668803.140862,599617623949878358,-1006,88,-12
1.010963,1775668803.140862,599617623949878358,-1006,97,-12
1.015963,1775668803.140862,599617623949878358,-1010,102,-14
1.020963,1775668803.140862,599617623949878358,-1013,111,-14
1.025963,1775668803.140862,599617623949878358,-1013,116,-19
1.030963,1775668803.140862,599617623949878358,-1014,119,-25
1.035963,1775668803.140862,599617623949878358,-1015,125,-35
1.040963,1775668803.140862,599617623949878358,-1018,133,-42
1.045963,1775668803.140862,599617623949878358,-1019,138,-58
1.050963,1775668803.140862,599617623949878358,-1022,141,-66
1.055963,1775668803.140862,599617623949878358,-1024,145,-70
1.057113,1775668803.276712,599617624126028244,-1027,156,-70
1.062113,1775668803.276712,599617624126028244,-1026,156,-75
1.067113,1775668803.276712,599617624126028244,-1028,154,-78
1.072113,1775668803.276712,599617624126028244,-1030,166,-84
1.077113,1775668803.276712,599617624126028244,-1030,159,-83
1.082113,1775668803.276712,599617624126028244,-1030,168,-93
1.087113,1775668803.276712,599617624126028244,-1032,162,-104
1.092113,1775668803.276712,599617624126028244,-1032,169,-116
1.097113,1775668803.276712,599617624126028244,-1030,173,-127
1.102113,1775668803.276712,599617624126028244,-1031,176,-133
1.107113,1775668803.276712,599617624126028244,-1031,181,-143
1.112113,1775668803.276712,599617624126028244,-1034,180,-151
1.117113,1775668803.276712,599617624126028244,-1035,185,-150
1.122113,1775668803.276712,599617624126028244,-1035,181,-154
1.127113,1775668803.276712,599617624126028244,-1037,186,-161
1.132113,1775668803.276712,599617624126028244,-1043,192,-168
1.137113,1775668803.276712,599617624126028244,-1036,189,-165
1.142113,1775668803.276712,599617624126028244,-1035,192,-169
1.147113,1775668803.276712,599617624126028244,-1039,192,-186
1.152113,1775668803.276712,599617624126028244,-1037,191,-191
1.157113,1775668803.276712,599617624126028244,-1046,192,-200
1.162113,1775668803.276712,599617624126028244,-1039,199,-209
1.167113,1775668803.276712,599617624126028244,-1036,206,-214
1.172113,1775668803.276712,599617624126028244,-1037,210,-220
1.177113,1775668803.276712,599617624126028244,-1042,211,-239
1.182113,1775668803.276712,599617624126028244,-1043,221,-246
1.187113,1775668803.276712,599617624126028244,-1041,222,-253
1.192113,1775668803.276712,599617624126028244,-1044,220,-271
1.197113,1775668803.276712,599617624126028244,-1051,226,-284
1.202113,1775668803.276712,599617624126028244,-1052,232,-297
1.207113,1775668803.276712,599617624126028244,-1059,236,-312
1.212113,1775668803.276712,599617624126028244,-1068,235,-328
1.217113,1775668803.276712,599617624126028244,-1063,239,-329
1.222113,1775668803.276712,599617624126028244,-1068,243,-347
1.227113,1775668803.276712,599617624126028244,-1088,243,-356
1.232113,1775668803.276712,599617624126028244,-1103,244,-366
1.233293,1775668803.456142,599617624302208668,-1114,247,-382
1.238293,1775668803.456142,599617624302208668,-1129,249,-397
1.243293,1775668803.456142,599617624302208668,-1138,256,-409
1.248293,1775668803.456142,599617624302208668,-1145,256,-427
1.253293,1775668803.456142,599617624302208668,-1149,264,-439
1.258293,1775668803.456142,599617624302208668,-1149,268,-446
1.263293,1775668803.456142,599617624302208668,-1151,278,-457
1.268293,1775668803.456142,599617624302208668,-1149,283,-458
1.273293,1775668803.456142,599617624302208668,-1147,293,-465
1.278293,1775668803.456142,599617624302208668,-1148,300,-464
1.283293,1775668803.456142,599617624302208668,-1148,305,-471
1.288293,1775668803.456142,599617624302208668,-1149,308,-486
1.293293,1775668803.456142,599617624302208668,-1149,303,-500
1.298293,1775668803.456142,599617624302208668,-1147,298,-505
1.303293,1775668803.456142,599617624302208668,-1145,297,-503
1.308293,1775668803.456142,599617624302208668,-1141,297,-500
1.313293,1775668803.456142,599617624302208668,-1123,292,-488
1.318293,1775668803.456142,599617624302208668,-1125,297,-489
1.323293,1775668803.456142,599617624302208668,-1131,295,-499
1.328293,1775668803.456142,599617624302208668,-1132,295,-508
1.333293,1775668803.456142,599617624302208668,-1133,300,-517
1.338293,1775668803.456142,599617624302208668,-1133,295,-517
1.343293,1775668803.456142,599617624302208668,-1130,295,-517
1.348293,1775668803.456142,599617624302208668,-1142,295,-519
1.353293,1775668803.456142,599617624302208668,-1147,290,-517
1.358293,1775668803.456142,599617624302208668,-1146,289,-525
1.363293,1775668803.456142,599617624302208668,-1152,283,-528
1.368293,1775668803.456142,599617624302208668,-1148,280,-530
1.373293,1775668803.456142,599617624302208668,-1149,283,-532
1.378293,1775668803.456142,599617624302208668,-1142,285,-531
1.383293,1775668803.456142,599617624302208668,-1139,290,-532
1.388293,1775668803.456142,599617624302208668,-1110,287,-525
1.393293,1775668803.456142,599617624302208668,-1095,281,-516
1.398293,1775668803.456142,599617624302208668,-1086,280,-515
1.403293,1775668803.456142,599617624302208668,-1075,271,-513
1.408293,1775668803.456142,599617624302208668,-1069,268,-525
1.409504,1775668803.639028,599617624478419610,-1059,263,-531
1.414504,1775668803.639028,599617624478419610,-1052,255,-538
1.419504,1775668803.639028,599617624478419610,-1058,251,-542
1.424504,1775668803.639028,599617624478419610,-1055,248,-548
1.429504,1775668803.639028,599617624478419610,-1061,244,-550
1.434504,1775668803.639028,599617624478419610,-1066,241,-553
1.439504,1775668803.639028,599617624478419610,-1068,236,-556
1.444504,1775668803.639028,599617624478419610,-1069,236,-560
1.449504,1775668803.639028,599617624478419610,-1073,234,-557
1.454504,1775668803.639028,599617624478419610,-1078,228,-563
1.459504,1775668803.639028,599617624478419610,-1079,225,-570
1.464504,1775668803.639028,599617624478419610,-1072,217,-570
1.469504,1775668803.639028,599617624478419610,-1071,212,-581
1.474504,1775668803.639028,599617624478419610,-1070,208,-585
1.479504,1775668803.639028,599617624478419610,-1073,207,-594
1.484504,1775668803.639028,599617624478419610,-1059,205,-586
1.489504,1775668803.639028,599617624478419610,-1049,204,-576
1.494504,1775668803.639028,599617624478419610,-1034,205,-559
1.499504,1775668803.639028,599617624478419610,-1030,201,-542
1.504504,1775668803.639028,599617624478419610,-1024,202,-533
1.509504,1775668803.639028,599617624478419610,-1016,193,-518
1.514504,1775668803.639028,599617624478419610,-1012,193,-509
1.519504,1775668803.639028,599617624478419610,-1005,191,-509
1.524504,1775668803.639028,599617624478419610,-1000,193,-514
1.529504,1775668803.639028,599617624478419610,-999,191,-514
1.534504,1775668803.639028,599617624478419610,-995,190,-517
1.539504,1775668803.639028,599617624478419610,-1000,188,-519
1.544504,1775668803.639028,599617624478419610,-1008,187,-520
1.549504,1775668803.639028,599617624478419610,-1018,181,-516
1.554504,1775668803.639028,599617624478419610,-1020,178,-521
1.559504,1775668803.639028,599617624478419610,-1024,172,-527
1.564504,1775668803.639028,599617624478419610,-1023,167,-524
1.569504,1775668803.639028,599617624478419610,-1018,163,-526
1.574504,1775668803.639028,599617624478419610,-1013,156,-513
1.579504,1775668803.639028,599617624478419610,-1013,152,-513
1.584504,1775668803.639028,599617624478419610,-1012,146,-501
1.585654,1775668803.864307,599617624654569486,-1006,142,-498
1.590654,1775668803.864307,599617624654569486,-996,143,-491
1.595654,1775668803.864307,599617624654569486,-991,145,-499
1.600654,1775668803.864307,599617624654569486,-994,143,-506
1.605654,1775668803.864307,599617624654569486,-990,142,-514
1.610654,1775668803.864307,599617624654569486,-985,135,-504
1.615654,1775668803.864307,599617624654569486,-981,133,-498
1.620654,1775668803.864307,599617624654569486,-982,127,-491
1.625654,1775668803.864307,599617624654569486,-983,126,-484
1.630654,1775668803.864307,599617624654569486,-978,126,-469
1.635654,1775668803.864307,599617624654569486,-970,126,-459
1.640654,1775668803.864307,599617624654569486,-968,124,-449
1.645654,1775668803.864307,599617624654569486,-971,124,-443
1.650654,1775668803.864307,599617624654569486,-958,121,-441
1.655654,1775668803.864307,599617624654569486,-949,120,-437
1.660654,1775668803.864307,599617624654569486,-941,117,-439
1.665654,1775668803.864307,599617624654569486,-943,116,-440
1.670654,1775668803.864307,599617624654569486,-944,116,-443
1.675654,1775668803.864307,599617624654569486,-947,109,-446
1.680654,1775668803.864307,599617624654569486,-948,102,-450
1.685654,1775668803.864307,599617624654569486,-946,87,-455
1.690654,1775668803.864307,599617624654569486,-943,72,-458
1.695654,1775668803.864307,599617624654569486,-944,61,-457
1.700654,1775668803.864307,599617624654569486,-940,54,-457
1.705654,1775668803.864307,599617624654569486,-934,50,-459
1.710654,1775668803.864307,599617624654569486,-929,43,-454
1.715654,1775668803.864307,599617624654569486,-924,38,-450
1.720654,1775668803.864307,599617624654569486,-922,36,-448
1.725654,1775668803.864307,599617624654569486,-920,39,-449
1.730654,1775668803.864307,599617624654569486,-921,39,-446
1.735654,1775668803.864307,599617624654569486,-918,42,-445
1.740654,1775668803.864307,599617624654569486,-915,42,-441
1.745654,1775668803.864307,599617624654569486,-914,44,-436
1.750654,1775668803.864307,599617624654569486,-919,45,-437
1.755654,1775668803.864307,599617624654569486,-920,40,-435
1.760654,1775668803.864307,599617624654569486,-923,44,-431
1.761865,1775668803.998287,599617624830780438,-930,47,-435
1.766865,1775668803.998287,599617624830780438,-930,51,-438
1.771865,1775668803.998287,599617624830780438,-931,49,-433
1.776865,1775668803.998287,599617624830780438,-930,54,-431
1.781865,1775668803.998287,599617624830780438,-929,55,-427
1.786865,1775668803.998287,599617624830780438,-928,57,-420
1.791865,1775668803.998287,599617624830780438,-931,64,-416
1.796865,1775668803.998287,599617624830780438,-929,62,-412
1.801865,1775668803.998287,599617624830780438,-938,62,-404
1.806865,1775668803.998287,599617624830780438,-933,68,-397
1.811865,1775668803.998287,599617624830780438,-938,68,-397
1.816865,1775668803.998287,599617624830780438,-938,66,-382
1.821865,1775668803.998287,599617624830780438,-943,63,-369
1.826865,1775668803.998287,599617624830780438,-961,54,-366
1.831865,1775668803.998287,599617624830780438,-970,53,-365
1.836865,1775668803.998287,599617624830780438,-980,45,-360
1.841865,1775668803.998287,599617624830780438,-984,41,-348
1.846865,1775668803.998287,599617624830780438,-989,32,-343
1.851865,1775668803.998287,599617624830780438,-995,30,-346
1.856865,1775668803.998287,599617624830780438,-1000,31,-344
1.861865,1775668803.998287,599617624830780438,-1003,34,-343
1.866865,1775668803.998287,599617624830780438,-1003,38,-341
1.871865,1775668803.998287,599617624830780438,-1002,47,-340
1.876865,1775668803.998287,599617624830780438,-998,55,-340
1.881865,1775668803.998287,599617624830780438,-990,68,-334
1.886865,1775668803.998287,599617624830780438,-977,83,-328
1.891865,1775668803.998287,599617624830780438,-949,100,-318
1.896865,1775668803.998287,599617624830780438,-926,113,-305
1.901865,1775668803.998287,599617624830780438,-918,119,-294
1.906865,1775668803.998287,599617624830780438,-908,118,-286
1.911865,1775668803.998287,599617624830780438,-889,126,-270
1.916865,1775668803.998287,599617624830780438,-870,135,-256
1.921865,1775668803.998287,599617624830780438,-847,133,-241
1.926865,1775668803.998287,599617624830780438,-832,145,-233
1.931865,1775668803.998287,599617624830780438,-818,154,-220
1.936865,1775668803.998287,599617624830780438,-813,156,-216
1.938107,1775668804.176437,599617625007021862,-821,152,-219
1.943107,1775668804.176437,599617625007021862,-806,160,-211
1.948107,1775668804.176437,599617625007021862,-804,175,-206
1.953107,1775668804.176437,599617625007021862,-809,174,-207
1.958107,1775668804.176437,599617625007021862,-817,180,-205
1.963107,1775668804.176437,599617625007021862,-812,172,-197
1.968107,1775668804.176437,599617625007021862,-809,178,-185
1.973107,1775668804.176437,599617625007021862,-816,177,-179
1.978106,1775668804.176437,599617625007021862,-832,167,-168
1.983106,1775668804.176437,599617625007021862,-826,167,-166
1.988106,1775668804.176437,599617625007021862,-834,178,-161
1.993106,1775668804.176437,599617625007021862,-840,172,-156
1.998106,1775668804.176437,599617625007021862,-840,178,-151
2.003106,1775668804.176437,599617625007021862,-839,178,-153
2.008106,1775668804.176437,599617625007021862,-846,170,-152
2.013106,1775668804.176437,599617625007021862,-842,177,-147
2.018106,1775668804.176437,599617625007021862,-840,174,-151
2.023106,1775668804.176437,599617625007021862,-833,170,-143
2.028106,1775668804.176437,599617625007021862,-824,158,-144
2.033106,1775668804.176437,599617625007021862,-807,161,-121
2.038106,1775668804.176437,599617625007021862,-801,154,-108
2.043106,1775668804.176437,599617625007021862,-791,156,-91
2.048106,1775668804.176437,599617625007021862,-790,151,-80
2.053107,1775668804.176437,599617625007021862,-788,148,-62
2.058107,1775668804.176437,599617625007021862,-786,157,-45
2.063107,1775668804.176437,599617625007021862,-791,148,-34
2.068107,1775668804.176437,599617625007021862,-790,156,-27
2.073107,1775668804.176437,599617625007021862,-788,165,-25
2.078107,1775668804.176437,599617625007021862,-787,174,-20
2.083107,1775668804.176437,599617625007021862,-782,179,-18
2.088107,1775668804.176437,599617625007021862,-779,189,-16
2.093107,1775668804.176437,599617625007021862,-773,192,-8
2.098107,1775668804.176437,599617625007021862,-774,193,-3
2.103106,1775668804.176437,599617625007021862,-772,194,9
2.108106,1775668804.176437,599617625007021862,-776,202,14
2.113106,1775668804.176437,599617625007021862,-787,201,18
2.114287,1775668804.312587,599617625183202292,-790,204,26
2.119287,1775668804.312587,599617625183202292,-792,211,30
2.124287,1775668804.312587,599617625183202292,-792,218,30
2.129287,1775668804.312587,599617625183202292,-798,222,36
2.134287,1775668804.312587,599617625183202292,-806,224,27
2.139287,1775668804.312587,599617625183202292,-810,221,26
2.144287,1775668804.312587,599617625183202292,-815,217,31
2.149287,1775668804.312587,599617625183202292,-821,220,45
2.154287,1775668804.312587,599617625183202292,-823,209,59
2.159287,1775668804.312587,599617625183202292,-831,201,70
2.164287,1775668804.312587,599617625183202292,-841,199,61
2.169287,1775668804.312587,599617625183202292,-842,195,59
2.174287,1775668804.312587,599617625183202292,-838,189,61
2.179287,1775668804.312587,599617625183202292,-835,192,65
2.184287,1775668804.312587,599617625183202292,-837,190,62
2.189287,1775668804.312587,599617625183202292,-836,183,66
2.194287,1775668804.312587,599617625183202292,-836,180,61
2.199287,1775668804.312587,599617625183202292,-838,178,68
2.204287,1775668804.312587,599617625183202292,-834,177,72
2.209287,1775668804.312587,599617625183202292,-838,172,87
2.214287,1775668804.312587,599617625183202292,-838,172,103
2.219287,1775668804.312587,599617625183202292,-837,168,114
2.224287,1775668804.312587,599617625183202292,-836,162,117
2.229287,1775668804.312587,599617625183202292,-839,162,129
2.234287,1775668804.312587,599617625183202292,-842,158,126
2.239287,1775668804.312587,599617625183202292,-841,151,126
2.244287,1775668804.312587,599617625183202292,-843,150,131
2.249287,1775668804.312587,599617625183202292,-836,143,149
2.254287,1775668804.312587,599617625183202292,-848,133,145
2.259287,1775668804.312587,599617625183202292,-850,129,141
2.264287,1775668804.312587,599617625183202292,-857,130,145
2.269287,1775668804.312587,599617625183202292,-851,124,149
2.274287,1775668804.312587,599617625183202292,-851,122,150
2.279287,1775668804.312587,599617625183202292,-859,118,142
2.284287,1775668804.312587,599617625183202292,-856,118,142
2.289287,1775668804.312587,599617625183202292,-866,113,124
2.290437,1775668804.537724,599617625359352178,-874,110,118
2.295437,1775668804.537724,599617625359352178,-870,104,118
2.300437,1775668804.537724,599617625359352178,-860,97,118
2.305437,1775668804.537724,599617625359352178,-871,92,116
2.310437,1775668804.537724,599617625359352178,-867,83,115
2.315437,1775668804.537724,599617625359352178,-873,79,120
2.320437,1775668804.537724,599617625359352178,-872,71,120
2.325437,1775668804.537724,599617625359352178,-885,63,127
2.330437,1775668804.537724,599617625359352178,-898,56,121
2.335437,1775668804.537724,599617625359352178,-898,48,129
2.340437,1775668804.537724,599617625359352178,-911,43,129
2.345437,1775668804.537724,599617625359352178,-917,37,120
2.350437,1775668804.537724,599617625359352178,-923,38,120
2.355437,1775668804.537724,599617625359352178,-929,41,121
2.360437,1775668804.537724,599617625359352178,-942,45,120
2.365437,1775668804.537724,599617625359352178,-954,50,123
2.370437,1775668804.537724,599617625359352178,-970,49,121
2.375437,1775668804.537724,599617625359352178,-979,48,117
2.380437,1775668804.537724,599617625359352178,-985,49,118
2.385437,1775668804.537724,599617625359352178,-997,45,119
2.390437,1775668804.537724,599617625359352178,-1008,48,123
2.395437,1775668804.537724,599617625359352178,-1015,48,138
2.400437,1775668804.537724,599617625359352178,-1017,52,153
2.405437,1775668804.537724,599617625359352178,-1021,56,162
2.410437,1775668804.537724,599617625359352178,-1022,58,169
2.415437,1775668804.537724,599617625359352178,-1023,58,177
2.420437,1775668804.537724,599617625359352178,-1026,59,178
2.425437,1775668804.537724,599617625359352178,-1035,60,171
2.430437,1775668804.537724,599617625359352178,-1041,56,164
2.435437,1775668804.537724,599617625359352178,-1047,59,156
2.440437,1775668804.537724,599617625359352178,-1053,65,153
2.445437,1775668804.537724,599617625359352178,-1064,68,152
2.450437,1775668804.537724,599617625359352178,-1056,72,158
2.455437,1775668804.537724,599617625359352178,-1053,74,166
2.460437,1775668804.537724,599617625359352178,-1045,80,166
2.465437,1775668804.537724,599617625359352178,-1032,96,179
2.466678,1775668804.671259,599617625535593622,-1027,104,203
2.471678,1775668804.671259,599617625535593622,-1020,109,220
2.476678,1775668804.671259,599617625535593622,-1022,116,223
2.481678,1775668804.671259,599617625535593622,-1023,121,223
2.486678,1775668804.671259,599617625535593622,-1023,127,215
2.491678,1775668804.671259,599617625535593622,-1020,135,208
2.496678,1775668804.671259,599617625535593622,-1011,140,208
2.501678,1775668804.671259,599617625535593622,-1010,139,203
2.506678,1775668804.671259,599617625535593622,-1007,136,201
2.511678,1775668804.671259,599617625535593622,-1012,135,196
2.516678,1775668804.671259,599617625535593622,-1002,130,192
2.521678,1775668804.671259,599617625535593622,-997,135,180
2.526678,1775668804.671259,599617625535593622,-995,138,169
2.531678,1775668804.671259,599617625535593622,-988,141,173
2.536678,1775668804.671259,599617625535593622,-984,139,170
2.541678,1775668804.671259,599617625535593622,-988,141,167
2.546678,1775668804.671259,599617625535593622,-991,138,162
2.551678,1775668804.671259,599617625535593622,-994,135,159
2.556678,1775668804.671259,599617625535593622,-989,128,160
2.561678,1775668804.671259,599617625535593622,-988,123,157
2.566678,1775668804.671259,599617625535593622,-993,115,160
2.571678,1775668804.671259,599617625535593622,-990,99,159
2.576678,1775668804.671259,599617625535593622,-987,70,171
2.581678,1775668804.671259,599617625535593622,-990,40,198
2.586678,1775668804.671259,599617625535593622,-1033,14,254
2.591678,1775668804.671259,599617625535593622,-1118,5,283
2.596678,1775668804.671259,599617625535593622,-1196,3,257
2.601678,1775668804.671259,599617625535593622,-1234,4,166
2.606678,1775668804.671259,599617625535593622,-1222,17,92
2.611678,1775668804.671259,599617625535593622,-1160,42,109
2.616678,1775668804.671259,599617625535593622,-1084,47,194
2.621678,1775668804.671259,599617625535593622,-1023,27,243
2.626678,1775668804.671259,599617625535593622,-1015,-13,182
2.631678,1775668804.671259,599617625535593622,-1028,-57,40
2.636678,1775668804.671259,599617625535593622,-1051,-93,-105
2.641678,1775668804.671259,599617625535593622,-1063,-100,-235
2.642950,1775668804.852087,599617625711865600,-1060,-97,-330
2.647950,1775668804.852087,599617625711865600,-1063,-96,-365
2.652950,1775668804.852087,599617625711865600,-1081,-85,-386
2.657950,1775668804.852087,599617625711865600,-1113,-72,-372
2.662950,1775668804.852087,599617625711865600,-1135,-70,-326
2.667950,1775668804.852087,599617625711865600,-1156,-84,-248
2.672950,1775668804.852087,599617625711865600,-1192,-110,-189
2.677950,1775668804.852087,599617625711865600,-1235,-124,-159
2.682950,1775668804.852087,599617625711865600,-1268,-134,-149
2.687950,1775668804.852087,599617625711865600,-1293,-147,-155
2.692950,1775668804.852087,599617625711865600,-1304,-147,-153
2.697950,1775668804.852087,599617625711865600,-1294,-129,-130
2.702950,1775668804.852087,599617625711865600,-1281,-114,-92
2.707950,1775668804.852087,599617625711865600,-1268,-94,-65
2.712950,1775668804.852087,599617625711865600,-1243,-76,-44
2.717950,1775668804.852087,599617625711865600,-1209,-69,-25
2.722950,1775668804.852087,599617625711865600,-1169,-56,-8
2.727950,1775668804.852087,599617625711865600,-1150,-58,-8
2.732950,1775668804.852087,599617625711865600,-1137,-57,-22
2.737950,1775668804.852087,599617625711865600,-1104,-59,-19
2.742950,1775668804.852087,599617625711865600,-1093,-60,-25
2.747950,1775668804.852087,599617625711865600,-1086,-65,-39
2.752950,1775668804.852087,599617625711865600,-1084,-62,-38
2.757950,1775668804.852087,599617625711865600,-1069,-60,-37
2.762950,1775668804.852087,599617625711865600,-1052,-47,-30
2.767950,1775668804.852087,599617625711865600,-1038,-40,-12
2.772950,1775668804.852087,599617625711865600,-1033,-31,-2
2.777950,1775668804.852087,599617625711865600,-1023,-17,17
2.782950,1775668804.852087,599617625711865600,-1014,-10,35
2.787950,1775668804.852087,599617625711865600,-992,1,53
2.792950,1775668804.852087,599617625711865600,-988,6,69
2.797950,1775668804.852087,599617625711865600,-973,13,86
2.802950,1775668804.852087,599617625711865600,-953,22,105
2.807950,1775668804.852087,599617625711865600,-941,24,116
2.812950,1775668804.852087,599617625711865600,-933,37,125
2.817950,1775668804.852087,599617625711865600,-925,37,140
2.819222,1775668805.031866,599617625888137568,-928,45,144
2.824222,1775668805.031866,599617625888137568,-936,47,145
2.829222,1775668805.031866,599617625888137568,-942,46,146
2.834222,1775668805.031866,599617625888137568,-952,37,132
2.839222,1775668805.031866,599617625888137568,-945,35,115
2.844222,1775668805.031866,599617625888137568,-943,35,90
2.849222,1775668805.031866,599617625888137568,-937,31,85
2.854222,1775668805.031866,599617625888137568,-918,36,86
2.859222,1775668805.031866,599617625888137568,-907,36,91
2.864222,1775668805.031866,599617625888137568,-908,34,86
2.869222,1775668805.031866,599617625888137568,-886,37,87
2.874222,1775668805.031866,599617625888137568,-858,30,89
2.879222,1775668805.031866,599617625888137568,-854,20,94
2.884222,1775668805.031866,599617625888137568,-850,19,95
2.889222,1775668805.031866,599617625888137568,-841,13,113
2.894222,1775668805.031866,599617625888137568,-844,14,117
2.899222,1775668805.031866,599617625888137568,-848,7,134
2.904222,1775668805.031866,599617625888137568,-847,5,144
2.909222,1775668805.031866,599617625888137568,-867,3,152
2.914222,1775668805.031866,599617625888137568,-886,-3,153
2.919222,1775668805.031866,599617625888137568,-892,-5,160
2.924222,1775668805.031866,599617625888137568,-911,-10,163
2.929222,1775668805.031866,599617625888137568,-906,-18,172
2.934222,1775668805.031866,599617625888137568,-915,-26,176
2.939222,1775668805.031866,599617625888137568,-907,-33,199
2.944222,1775668805.031866,599617625888137568,-897,-40,216
2.949222,1775668805.031866,599617625888137568,-886,-48,222
2.954222,1775668805.031866,599617625888137568,-889,-61,238
2.959222,1775668805.031866,599617625888137568,-874,-72,252
2.964222,1775668805.031866,599617625888137568,-866,-89,253
2.969222,1775668805.031866,599617625888137568,-848,-104,262
2.974222,1775668805.031866,599617625888137568,-841,-109,266
2.979222,1775668805.031866,599617625888137568,-844,-110,270
2.984222,1775668805.031866,599617625888137568,-865,-111,268
2.989222,1775668805.031866,599617625888137568,-881,-116,253
2.994222,1775668805.031866,599617625888137568,-896,-120,250
2.995494,1775668805.211819,599617626064409536,-909,-121,244
3.000494,1775668805.211819,599617626064409536,-913,-121,233
3.005494,1775668805.211819,599617626064409536,-908,-127,232
3.010494,1775668805.211819,599617626064409536,-904,-125,225
3.015494,1775668805.211819,599617626064409536,-903,-121,213
3.020494,1775668805.211819,599617626064409536,-899,-115,215
3.025494,1775668805.211819,599617626064409536,-888,-104,219
3.030494,1775668805.211819,599617626064409536,-883,-91,239
3.035494,1775668805.211819,599617626064409536,-878,-72,262
3.040494,1775668805.211819,599617626064409536,-893,-53,284
3.045494,1775668805.211819,599617626064409536,-908,-37,289
3.050494,1775668805.211819,599617626064409536,-919,-20,295
3.055494,1775668805.211819,599617626064409536,-943,-1,300
3.060494,1775668805.211819,599617626064409536,-969,3,292
3.065494,1775668805.211819,599617626064409536,-989,1,283
3.070494,1775668805.211819,599617626064409536,-1011,-4,266
3.075494,1775668805.211819,599617626064409536,-1021,-18,252
3.080494,1775668805.211819,599617626064409536,-1026,-45,219
3.085494,1775668805.211819,599617626064409536,-1023,-69,191
3.090494,1775668805.211819,599617626064409536,-1018,-109,185
3.095494,1775668805.211819,599617626064409536,-999,-141,176
3.100494,1775668805.211819,599617626064409536,-991,-161,184
3.105494,1775668805.211819,599617626064409536,-971,-196,188
3.110494,1775668805.211819,599617626064409536,-968,-206,194
3.115494,1775668805.211819,599617626064409536,-974,-197,203
3.120494,1775668805.211819,599617626064409536,-993,-184,216
3.125494,1775668805.211819,599617626064409536,-1020,-161,234
3.130494,1775668805.211819,599617626064409536,-1058,-137,244
3.135494,1775668805.211819,599617626064409536,-1105,-125,234
3.140494,1775668805.211819,599617626064409536,-1142,-122,193
3.145494,1775668805.211819,599617626064409536,-1158,-117,161
3.150494,1775668805.211819,599617626064409536,-1174,-114,146
3.155494,1775668805.211819,599617626064409536,-1197,-102,143
3.160494,1775668805.211819,599617626064409536,-1215,-89,108
3.165494,1775668805.211819,599617626064409536,-1198,-65,52
3.170494,1775668805.211819,599617626064409536,-1146,-41,-9
3.171766,1775668805.483105,599617626240681504,-1078,2,-69
3.176766,1775668805.483105,599617626240681504,-1019,54,-113
3.181766,1775668805.483105,599617626240681504,-984,119,-153
3.186766,1775668805.483105,599617626240681504,-991,182,-180
3.191766,1775668805.483105,599617626240681504,-1028,226,-206
3.196766,1775668805.483105,599617626240681504,-1078,251,-231
3.201766,1775668805.483105,599617626240681504,-1134,273,-237
3.206766,1775668805.483105,599617626240681504,-1158,292,-202
3.211766,1775668805.483105,599617626240681504,-1186,307,-136
3.216766,1775668805.483105,599617626240681504,-1226,319,-33
3.221766,1775668805.483105,599617626240681504,-1266,332,64
3.226766,1775668805.483105,599617626240681504,-1315,346,149
3.231766,1775668805.483105,599617626240681504,-1379,357,199
3.236766,1775668805.483105,599617626240681504,-1423,361,218
3.241766,1775668805.483105,599617626240681504,-1441,367,194
3.246766,1775668805.483105,599617626240681504,-1442,360,150
3.251766,1775668805.483105,599617626240681504,-1439,330,94
3.256766,1775668805.483105,599617626240681504,-1424,296,47
3.261766,1775668805.483105,599617626240681504,-1409,259,8
3.266766,1775668805.483105,599617626240681504,-1377,236,-17
3.271766,1775668805.483105,599617626240681504,-1341,210,-48
3.276766,1775668805.483105,599617626240681504,-1292,196,-56
3.281766,1775668805.483105,599617626240681504,-1259,186,-66
3.286766,1775668805.483105,599617626240681504,-1220,188,-71
3.291766,1775668805.483105,599617626240681504,-1171,189,-72
3.296766,1775668805.483105,599617626240681504,-1136,193,-62
3.301766,1775668805.483105,599617626240681504,-1084,194,-35
3.306766,1775668805.483105,599617626240681504,-1038,197,-5
3.311766,1775668805.483105,599617626240681504,-1018,196,29
3.316766,1775668805.483105,599617626240681504,-1000,190,50
3.321766,1775668805.483105,599617626240681504,-998,184,75
3.326766,1775668805.483105,599617626240681504,-1002,179,87
3.331766,1775668805.483105,599617626240681504,-1016,168,90
3.336766,1775668805.483105,599617626240681504,-1027,156,84
3.341766,1775668805.483105,599617626240681504,-1042,142,79
3.346766,1775668805.483105,599617626240681504,-1063,129,80
3.347977,1775668805.573305,599617626416892452,-1083,117,82
3.352977,1775668805.573305,599617626416892452,-1092,107,70
3.357977,1775668805.573305,599617626416892452,-1090,100,70
3.362977,1775668805.573305,599617626416892452,-1080,98,73
3.367977,1775668805.573305,599617626416892452,-1051,89,64
3.372977,1775668805.573305,599617626416892452,-1031,81,56
3.377977,1775668805.573305,599617626416892452,-1018,79,46
3.382977,1775668805.573305,599617626416892452,-989,66,47
3.387977,1775668805.573305,599617626416892452,-957,57,42
3.392977,1775668805.573305,599617626416892452,-925,46,47
3.397977,1775668805.573305,599617626416892452,-899,42,44
3.402977,1775668805.573305,599617626416892452,-855,38,49
3.407977,1775668805.573305,599617626416892452,-814,43,62
3.412977,1775668805.573305,599617626416892452,-786,52,75
3.417977,1775668805.573305,599617626416892452,-751,73,90
3.422977,1775668805.573305,599617626416892452,-721,94,98
3.427977,1775668805.573305,599617626416892452,-697,113,96
3.432977,1775668805.573305,599617626416892452,-684,124,83
3.437977,1775668805.573305,599617626416892452,-679,133,71
3.442977,1775668805.573305,599617626416892452,-674,140,58
3.447977,1775668805.573305,599617626416892452,-676,143,62
3.452977,1775668805.573305,599617626416892452,-685,145,60
3.457977,1775668805.573305,599617626416892452,-707,144,68
3.462977,1775668805.573305,599617626416892452,-729,135,73
3.467977,1775668805.573305,599617626416892452,-753,135,67
3.472977,1775668805.573305,599617626416892452,-775,136,59
3.477977,1775668805.573305,599617626416892452,-791,137,52
3.482977,1775668805.573305,599617626416892452,-798,144,52
3.487977,1775668805.573305,599617626416892452,-810,147,50
3.492977,1775668805.573305,599617626416892452,-820,148,56
3.497977,1775668805.573305,599617626416892452,-819,148,71
3.502977,1775668805.573305,599617626416892452,-816,153,83
3.507977,1775668805.573305,599617626416892452,-821,156,100
3.512977,1775668805.573305,599617626416892452,-826,163,112
3.517977,1775668805.573305,599617626416892452,-839,165,120
3.522977,1775668805.573305,599617626416892452,-844,168,126
3.524188,1775668805.752042,599617626593103384,-852,166,131
3.529188,1775668805.752042,599617626593103384,-868,161,139
3.534188,1775668805.752042,599617626593103384,-882,151,153
3.539188,1775668805.752042,599617626593103384,-898,142,166
3.544188,1775668805.752042,599617626593103384,-915,131,184
3.549188,1775668805.752042,599617626593103384,-932,125,193
3.554188,1775668805.752042,599617626593103384,-958,118,198
3.559188,1775668805.752042,599617626593103384,-970,111,193
3.564188,1775668805.752042,599617626593103384,-980,103,184
3.569188,1775668805.752042,599617626593103384,-984,96,184
3.574188,1775668805.752042,599617626593103384,-989,83,178
3.579188,1775668805.752042,599617626593103384,-987,77,188
3.584188,1775668805.752042,599617626593103384,-986,69,190
3.589188,1775668805.752042,599617626593103384,-982,61,184
3.594188,1775668805.752042,599617626593103384,-979,56,181
3.599188,1775668805.752042,599617626593103384,-973,53,181
3.604188,1775668805.752042,599617626593103384,-953,53,182
3.609188,1775668805.752042,599617626593103384,-936,51,182
3.614188,1775668805.752042,599617626593103384,-919,54,183
3.619188,1775668805.752042,599617626593103384,-909,59,178
3.624188,1775668805.752042,599617626593103384,-893,65,183
3.629188,1775668805.752042,599617626593103384,-873,77,187
3.634188,1775668805.752042,599617626593103384,-857,83,194
3.639188,1775668805.752042,599617626593103384,-852,95,209
3.644188,1775668805.752042,599617626593103384,-850,102,225
3.649188,1775668805.752042,599617626593103384,-849,112,237
3.654188,1775668805.752042,599617626593103384,-856,119,258
3.659188,1775668805.752042,599617626593103384,-875,127,260
3.664188,1775668805.752042,599617626593103384,-895,133,261
3.669188,1775668805.752042,599617626593103384,-903,146,267
3.674188,1775668805.752042,599617626593103384,-913,157,265
3.679188,1775668805.752042,599617626593103384,-921,164,264
3.684188,1775668805.752042,599617626593103384,-923,177,258
3.689188,1775668805.752042,599617626593103384,-932,183,259
3.694188,1775668805.752042,599617626593103384,-942,190,255
3.699188,1775668805.752042,599617626593103384,-939,192,251
3.700369,1775668805.977435,599617626769283788,-942,198,230
3.705369,1775668805.977435,599617626769283788,-947,197,213
3.710369,1775668805.977435,599617626769283788,-956,193,195
3.715369,1775668805.977435,599617626769283788,-961,176,183
3.720369,1775668805.977435,599617626769283788,-967,146,179
3.725369,1775668805.977435,599617626769283788,-969,128,188
3.730369,1775668805.977435,599617626769283788,-980,112,210
3.735369,1775668805.977435,599617626769283788,-991,95,224
3.740369,1775668805.977435,599617626769283788,-1005,83,235
3.745369,1775668805.977435,599617626769283788,-1017,76,240
3.750369,1775668805.977435,599617626769283788,-1023,66,243
3.755369,1775668805.977435,599617626769283788,-1026,62,239
3.760369,1775668805.977435,599617626769283788,-1025,57,244
3.765369,1775668805.977435,599617626769283788,-1024,56,250
3.770369,1775668805.977435,599617626769283788,-1020,53,259
3.775369,1775668805.977435,599617626769283788,-1015,49,253
3.780369,1775668805.977435,599617626769283788,-1007,45,262
3.785369,1775668805.977435,599617626769283788,-998,49,261
3.790369,1775668805.977435,599617626769283788,-989,50,266
3.795369,1775668805.977435,599617626769283788,-982,59,269
3.800369,1775668805.977435,599617626769283788,-975,65,265
3.805369,1775668805.977435,599617626769283788,-962,71,272
3.810369,1775668805.977435,599617626769283788,-940,78,276
3.815369,1775668805.977435,599617626769283788,-930,73,284
3.820369,1775668805.977435,599617626769283788,-929,51,292
3.825369,1775668805.977435,599617626769283788,-962,17,321
3.830369,1775668805.977435,599617626769283788,-1029,5,390
3.835369,1775668805.977435,599617626769283788,-1155,4,424
3.840369,1775668805.977435,599617626769283788,-1283,15,348
3.845369,1775668805.977435,599617626769283788,-1339,57,208
3.850369,1775668805.977435,599617626769283788,-1308,131,74
3.855369,1775668805.977435,599617626769283788,-1227,190,33
3.860369,1775668805.977435,599617626769283788,-1135,206,57
3.865369,1775668805.977435,599617626769283788,-1058,183,115
3.870369,1775668805.977435,599617626769283788,-1028,138,166
3.875369,1775668805.977435,599617626769283788,-1051,103,185
3.876610,1775668806.156305,599617626945525222,-1111,64,159
3.881610,1775668806.156305,599617626945525222,-1167,37,75
3.886610,1775668806.156305,599617626945525222,-1237,21,-36
3.891610,1775668806.156305,599617626945525222,-1282,17,-151
3.896610,1775668806.156305,599617626945525222,-1324,9,-229
3.901610,1775668806.156305,599617626945525222,-1329,-6,-267
3.906610,1775668806.156305,599617626945525222,-1327,-21,-269
3.911610,1775668806.156305,599617626945525222,-1323,-43,-235
3.916610,1775668806.156305,599617626945525222,-1321,-58,-192
3.921610,1775668806.156305,599617626945525222,-1325,-65,-126
3.926610,1775668806.156305,599617626945525222,-1323,-68,-46
3.931610,1775668806.156305,599617626945525222,-1322,-70,20
3.936610,1775668806.156305,599617626945525222,-1312,-71,67
3.941610,1775668806.156305,599617626945525222,-1290,-76,110
3.946610,1775668806.156305,599617626945525222,-1275,-86,136
3.951610,1775668806.156305,599617626945525222,-1246,-91,136
3.956610,1775668806.156305,599617626945525222,-1200,-94,121
3.961610,1775668806.156305,599617626945525222,-1154,-101,97
3.966610,1775668806.156305,599617626945525222,-1106,-105,75
3.971610,1775668806.156305,599617626945525222,-1070,-115,53
3.976610,1775668806.156305,599617626945525222,-1034,-119,43
3.981610,1775668806.156305,599617626945525222,-1021,-128,34
3.986610,1775668806.156305,599617626945525222,-1011,-132,21
3.991610,1775668806.156305,599617626945525222,-1011,-127,17
3.996610,1775668806.156305,599617626945525222,-1018,-118,22
4.001610,1775668806.156305,599617626945525222,-1028,-108,29
4.006610,1775668806.156305,599617626945525222,-1047,-89,42
4.011610,1775668806.156305,599617626945525222,-1073,-61,54
4.016610,1775668806.156305,599617626945525222,-1092,-39,74
4.021610,1775668806.156305,599617626945525222,-1111,-15,96
4.026610,1775668806.156305,599617626945525222,-1119,1,110
4.031610,1775668806.156305,599617626945525222,-1117,13,125
4.036610,1775668806.156305,599617626945525222,-1108,24,139
4.041610,1775668806.156305,599617626945525222,-1095,34,148
4.046610,1775668806.156305,599617626945525222,-1077,40,153
4.051610,1775668806.156305,599617626945525222,-1048,48,156
4.052760,1775668806.382018,599617627121675124,-1026,54,155
4.057760,1775668806.382018,599617627121675124,-994,58,153
4.062760,1775668806.382018,599617627121675124,-958,57,148
4.067760,1775668806.382018,599617627121675124,-922,61,147
4.072760,1775668806.382018,599617627121675124,-904,59,145
4.077760,1775668806.382018,599617627121675124,-875,63,140
4.082760,1775668806.382018,599617627121675124,-853,60,136
4.087760,1775668806.382018,599617627121675124,-838,57,129
4.092760,1775668806.382018,599617627121675124,-824,48,130
4.097760,1775668806.382018,599617627121675124,-808,38,127
4.102760,1775668806.382018,599617627121675124,-799,31,125
4.107760,1775668806.382018,599617627121675124,-792,21,125
4.112760,1775668806.382018,599617627121675124,-784,18,132
4.117760,1775668806.382018,599617627121675124,-773,15,142
4.122760,1775668806.382018,599617627121675124,-762,14,141
4.127760,1775668806.382018,599617627121675124,-764,8,154
4.132760,1775668806.382018,599617627121675124,-764,3,154
4.137760,1775668806.382018,599617627121675124,-766,-6,161
4.142760,1775668806.382018,599617627121675124,-770,-5,159
4.147760,1775668806.382018,599617627121675124,-774,-9,161
4.152760,1775668806.382018,599617627121675124,-782,-10,163
4.157760,1775668806.382018,599617627121675124,-792,-17,164
4.162760,1775668806.382018,599617627121675124,-801,-21,162
4.167760,1775668806.382018,599617627121675124,-820,-21,162
4.172760,1775668806.382018,599617627121675124,-833,-24,158
4.177760,1775668806.382018,599617627121675124,-841,-25,163
4.182760,1775668806.382018,599617627121675124,-853,-30,162
4.187760,1775668806.382018,599617627121675124,-859,-35,167
4.192760,1775668806.382018,599617627121675124,-865,-39,174
4.197760,1775668806.382018,599617627121675124,-863,-47,180
4.202760,1775668806.382018,599617627121675124,-858,-53,180
4.207760,1775668806.382018,599617627121675124,-863,-61,179
4.212760,1775668806.382018,599617627121675124,-870,-67,175
4.217760,1775668806.382018,599617627121675124,-889,-73,168
4.222760,1775668806.382018,599617627121675124,-909,-73,161
4.227760,1775668806.382018,599617627121675124,-922,-77,162
4.228940,1775668806.426201,599617627297855548,-955,-77,161
4.233940,1775668806.426201,599617627297855548,-986,-69,162
4.238940,1775668806.426201,599617627297855548,-1012,-65,159
4.243940,1775668806.426201,599617627297855548,-1027,-67,157
4.248940,1775668806.426201,599617627297855548,-1039,-62,158
4.253940,1775668806.426201,599617627297855548,-1053,-61,158
4.258940,1775668806.426201,599617627297855548,-1059,-52,159
4.263940,1775668806.426201,599617627297855548,-1069,-46,164
4.268940,1775668806.426201,599617627297855548,-1060,-33,174
4.273940,1775668806.426201,599617627297855548,-1049,-22,186
4.278940,1775668806.426201,599617627297855548,-1037,-5,204
4.283940,1775668806.426201,599617627297855548,-1032,9,212
4.288940,1775668806.426201,599617627297855548,-1027,19,224
4.293940,1775668806.426201,599617627297855548,-1021,29,228
4.298940,1775668806.426201,599617627297855548,-1015,46,233
4.303940,1775668806.426201,599617627297855548,-1017,55,235
4.308940,1775668806.426201,599617627297855548,-1015,62,229
4.313940,1775668806.426201,599617627297855548,-1021,70,215
4.318940,1775668806.426201,599617627297855548,-1026,67,198
4.323940,1775668806.426201,599617627297855548,-1029,60,178
4.328940,1775668806.426201,599617627297855548,-1030,45,165
4.333940,1775668806.426201,599617627297855548,-1026,30,149
4.338940,1775668806.426201,599617627297855548,-1021,13,137
4.343940,1775668806.426201,599617627297855548,-1010,-2,139
4.348940,1775668806.426201,599617627297855548,-993,-18,143
4.353940,1775668806.426201,599617627297855548,-981,-36,155
4.358940,1775668806.426201,599617627297855548,-972,-46,165
4.363940,1775668806.426201,599617627297855548,-962,-57,179
4.368940,1775668806.426201,599617627297855548,-956,-61,184
4.373940,1775668806.426201,599617627297855548,-957,-56,188
4.378940,1775668806.426201,599617627297855548,-955,-52,198
4.383940,1775668806.426201,599617627297855548,-956,-41,203
4.388940,1775668806.426201,599617627297855548,-962,-28,222
4.393940,1775668806.426201,599617627297855548,-976,-14,246
4.398940,1775668806.426201,599617627297855548,-989,1,259
4.403940,1775668806.426201,599617627297855548,-1008,9,272
4.405151,1775668806.655525,599617627474066490,-1025,16,285
4.410151,1775668806.655525,599617627474066490,-1046,33,304
4.415151,1775668806.655525,599617627474066490,-1102,56,327
4.420151,1775668806.655525,599617627474066490,-1185,76,350
4.425151,1775668806.655525,599617627474066490,-1281,78,334
4.430151,1775668806.655525,599617627474066490,-1383,66,273
4.435151,1775668806.655525,599617627474066490,-1433,37,164
4.440151,1775668806.655525,599617627474066490,-1422,17,35
4.445151,1775668806.655525,599617627474066490,-1335,8,-72
4.450151,1775668806.655525,599617627474066490,-1226,12,-148
4.455151,1775668806.655525,599617627474066490,-1111,34,-183
4.460151,1775668806.655525,599617627474066490,-1036,63,-207
4.465151,1775668806.655525,599617627474066490,-1026,102,-234
4.470151,1775668806.655525,599617627474066490,-1046,118,-270
4.475151,1775668806.655525,599617627474066490,-1094,125,-292
4.480151,1775668806.655525,599617627474066490,-1137,124,-277
4.485151,1775668806.655525,599617627474066490,-1156,117,-233
4.490151,1775668806.655525,599617627474066490,-1178,104,-179
4.495151,1775668806.655525,599617627474066490,-1200,73,-93
4.500151,1775668806.655525,599617627474066490,-1215,50,-6
4.505151,1775668806.655525,599617627474066490,-1226,36,65
4.510151,1775668806.655525,599617627474066490,-1233,30,118
4.515151,1775668806.655525,599617627474066490,-1241,34,143
4.520151,1775668806.655525,599617627474066490,-1245,35,138
4.525151,1775668806.655525,599617627474066490,-1238,30,113
4.530151,1775668806.655525,599617627474066490,-1200,27,81
4.535151,1775668806.655525,599617627474066490,-1157,32,52
4.540151,1775668806.655525,599617627474066490,-1129,36,31
4.545151,1775668806.655525,599617627474066490,-1099,37,9
4.550151,1775668806.655525,599617627474066490,-1077,42,6
4.555151,1775668806.655525,599617627474066490,-1047,45,8
4.560151,1775668806.655525,599617627474066490,-1030,48,28
4.565151,1775668806.655525,599617627474066490,-1023,51,42
4.570151,1775668806.655525,599617627474066490,-1019,48,74
4.575151,1775668806.655525,599617627474066490,-1019,38,104
4.580151,1775668806.655525,599617627474066490,-1017,20,128
4.581393,1775668806.788531,599617627650307914,-1014,4,142
4.586393,1775668806.788531,599617627650307914,-1011,-11,131
4.591393,1775668806.788531,599617627650307914,-996,-25,111
4.596393,1775668806.788531,599617627650307914,-978,-38,89
4.601393,1775668806.788531,599617627650307914,-949,-50,69
4.606393,1775668806.788531,599617627650307914,-924,-51,63
4.611393,1775668806.788531,599617627650307914,-916,-49,57
4.616393,1775668806.788531,599617627650307914,-919,-39,59
4.621393,1775668806.788531,599617627650307914,-929,-30,61
4.626393,1775668806.788531,599617627650307914,-946,-13,69
4.631393,1775668806.788531,599617627650307914,-962,-4,76
4.636393,1775668806.788531,599617627650307914,-960,3,72
4.641393,1775668806.788531,599617627650307914,-953,15,72
4.646393,1775668806.788531,599617627650307914,-938,27,83
4.651393,1775668806.788531,599617627650307914,-922,41,89
4.656393,1775668806.788531,599617627650307914,-918,52,105
4.661393,1775668806.788531,599617627650307914,-914,73,119
4.666393,1775668806.788531,599617627650307914,-908,92,131
4.671393,1775668806.788531,599617627650307914,-904,103,136
4.676393,1775668806.788531,599617627650307914,-896,117,130
4.681393,1775668806.788531,599617627650307914,-890,122,114
4.686393,1775668806.788531,599617627650307914,-871,130,95
4.691393,1775668806.788531,599617627650307914,-859,134,84
4.696393,1775668806.788531,599617627650307914,-847,132,71
4.701393,1775668806.788531,599617627650307914,-847,132,66
4.706393,1775668806.788531,599617627650307914,-843,129,60
4.711393,1775668806.788531,599617627650307914,-847,122,63
4.716393,1775668806.788531,599617627650307914,-847,119,65
4.721393,1775668806.788531,599617627650307914,-850,116,68
4.726393,1775668806.788531,599617627650307914,-859,114,73
4.731393,1775668806.788531,599617627650307914,-875,114,80
4.736393,1775668806.788531,599617627650307914,-890,114,87
4.741393,1775668806.788531,599617627650307914,-908,114,94
4.746393,1775668806.788531,599617627650307914,-917,114,102
4.751393,1775668806.788531,599617627650307914,-924,115,110
4.756393,1775668806.788531,599617627650307914,-940,118,106
4.757543,1775668806.966707,599617627826457816,-952,117,118
4.762543,1775668806.966707,599617627826457816,-969,115,112
4.767543,1775668806.966707,599617627826457816,-979,114,108
4.772543,1775668806.966707,599617627826457816,-984,115,99
4.777543,1775668806.966707,599617627826457816,-996,114,93
4.782543,1775668806.966707,599617627826457816,-1003,118,95
4.787543,1775668806.966707,599617627826457816,-1011,116,95
4.792543,1775668806.966707,599617627826457816,-1018,110,95
4.797543,1775668806.966707,599617627826457816,-1025,109,98
4.802543,1775668806.966707,599617627826457816,-1027,103,92
4.807543,1775668806.966707,599617627826457816,-1031,93,86
4.812543,1775668806.966707,599617627826457816,-1033,86,84
4.817543,1775668806.966707,599617627826457816,-1032,82,82
4.822543,1775668806.966707,599617627826457816,-1029,76,87
4.827543,1775668806.966707,599617627826457816,-1026,71,90
4.832543,1775668806.966707,599617627826457816,-1023,66,91
4.837543,1775668806.966707,599617627826457816,-1020,58,100
4.842543,1775668806.966707,599617627826457816,-1011,51,104
4.847543,1775668806.966707,599617627826457816,-1003,50,106
4.852543,1775668806.966707,599617627826457816,-996,42,114
4.857543,1775668806.966707,599617627826457816,-996,37,118
4.862543,1775668806.966707,599617627826457816,-997,31,114
4.867543,1775668806.966707,599617627826457816,-1002,31,114
4.872543,1775668806.966707,599617627826457816,-1001,26,119
4.877543,1775668806.966707,599617627826457816,-1006,20,117
4.882543,1775668806.966707,599617627826457816,-1011,19,116
4.887543,1775668806.966707,599617627826457816,-1005,16,115
4.892543,1775668806.966707,599617627826457816,-1010,15,116
4.897543,1775668806.966707,599617627826457816,-1010,11,116
4.902543,1775668806.966707,599617627826457816,-1011,12,111
4.907543,1775668806.966707,599617627826457816,-1009,15,106
4.912543,1775668806.966707,599617627826457816,-1002,15,103
4.917543,1775668806.966707,599617627826457816,-1006,18,100
4.922543,1775668806.966707,599617627826457816,-999,17,94
4.927543,1775668806.966707,599617627826457816,-996,24,94
4.932543,1775668806.966707,599617627826457816,-996,27,87
4.933692,1775668807.147295,599617628002607712,-992,34,85
4.938692,1775668807.147295,599617628002607712,-995,44,75
4.943692,1775668807.147295,599617628002607712,-992,52,66
4.948692,1775668807.147295,599617628002607712,-991,65,66
4.953692,1775668807.147295,599617628002607712,-992,86,60
4.958692,1775668807.147295,599617628002607712,-995,102,61
4.963692,1775668807.147295,599617628002607712,-1003,114,62
4.968692,1775668807.147295,599617628002607712,-1004,119,57
4.973692,1775668807.147295,599617628002607712,-1014,128,51
4.978692,1775668807.147295,599617628002607712,-1017,133,42
4.983692,1775668807.147295,599617628002607712,-1020,141,38
4.988692,1775668807.147295,599617628002607712,-1021,143,35
4.993692,1775668807.147295,599617628002607712,-1023,146,31
4.998692,1775668807.147295,599617628002607712,-1019,146,33
5.003692,1775668807.147295,599617628002607712,-1014,147,41
5.008692,1775668807.147295,599617628002607712,-1009,147,53
5.013692,1775668807.147295,599617628002607712,-1003,142,60
5.018692,1775668807.147295,599617628002607712,-995,139,72
5.023692,1775668807.147295,599617628002607712,-990,138,79
5.028692,1775668807.147295,599617628002607712,-989,140,81
5.033692,1775668807.147295,599617628002607712,-992,143,81
5.038692,1775668807.147295,599617628002607712,-990,149,79
5.043692,1775668807.147295,599617628002607712,-993,155,72
5.048692,1775668807.147295,599617628002607712,-994,163,64
5.053692,1775668807.147295,599617628002607712,-997,169,59
5.058692,1775668807.147295,599617628002607712,-997,177,54
5.063692,1775668807.147295,599617628002607712,-995,177,58
5.068692,1775668807.147295,599617628002607712,-993,171,59
5.073692,1775668807.147295,599617628002607712,-996,166,67
5.078692,1775668807.147295,599617628002607712,-1004,159,70
5.083692,1775668807.147295,599617628002607712,-1009,145,79
5.088692,1775668807.147295,599617628002607712,-1021,130,89
5.093692,1775668807.147295,599617628002607712,-1029,116,93
5.098692,1775668807.147295,599617628002607712,-1055,92,94
5.103692,1775668807.147295,599617628002607712,-1097,61,91
5.108692,1775668807.147295,599617628002607712,-1143,36,78
5.109964,1775668807.328579,599617628178879684,-1194,10,59
5.114964,1775668807.328579,599617628178879684,-1236,-5,37
5.119964,1775668807.328579,599617628178879684,-1242,-18,5
5.124964,1775668807.328579,599617628178879684,-1224,-25,-29
5.129964,1775668807.328579,599617628178879684,-1167,-24,-56
5.134964,1775668807.328579,599617628178879684,-1104,-23,-61
5.139964,1775668807.328579,599617628178879684,-1048,-32,-59
5.144964,1775668807.328579,599617628178879684,-1025,-43,-61
5.149964,1775668807.328579,599617628178879684,-1020,-57,-67
5.154964,1775668807.328579,599617628178879684,-1016,-67,-83
5.159964,1775668807.328579,599617628178879684,-1009,-73,-102
5.164964,1775668807.328579,599617628178879684,-1007,-62,-116
5.169964,1775668807.328579,599617628178879684,-1007,-49,-124
5.174964,1775668807.328579,599617628178879684,-1004,-41,-104
5.179964,1775668807.328579,599617628178879684,-1005,-35,-82
5.184964,1775668807.328579,599617628178879684,-1003,-34,-58
5.189964,1775668807.328579,599617628178879684,-1011,-34,-16
5.194964,1775668807.328579,599617628178879684,-1013,-43,13
5.199964,1775668807.328579,599617628178879684,-1019,-50,32
5.204964,1775668807.328579,599617628178879684,-1020,-58,41
5.209964,1775668807.328579,599617628178879684,-1015,-71,39
5.214964,1775668807.328579,599617628178879684,-1006,-85,25
5.219964,1775668807.328579,599617628178879684,-991,-101,7
5.224964,1775668807.328579,599617628178879684,-971,-107,-17
5.229964,1775668807.328579,599617628178879684,-952,-110,-47
5.234964,1775668807.328579,599617628178879684,-936,-116,-70
5.239964,1775668807.328579,599617628178879684,-928,-120,-87
5.244964,1775668807.328579,599617628178879684,-926,-124,-103
5.249964,1775668807.328579,599617628178879684,-927,-130,-116
5.254964,1775668807.328579,599617628178879684,-923,-135,-120
5.259964,1775668807.328579,599617628178879684,-920,-132,-115
5.264964,1775668807.328579,599617628178879684,-920,-131,-106
5.269964,1775668807.328579,599617628178879684,-918,-126,-103
5.274964,1775668807.328579,599617628178879684,-918,-121,-92
5.279964,1775668807.328579,599617628178879684,-919,-113,-86
5.284964,1775668807.328579,599617628178879684,-928,-106,-77
5.286206,1775668807.552280,599617628355121124,-943,-96,-68
5.291206,1775668807.552280,599617628355121124,-965,-89,-63
5.296206,1775668807.552280,599617628355121124,-985,-82,-57
5.301206,1775668807.552280,599617628355121124,-1004,-71,-47
5.306206,1775668807.552280,599617628355121124,-1023,-63,-37
5.311206,1775668807.552280,599617628355121124,-1038,-68,-37
5.316206,1775668807.552280,599617628355121124,-1063,-64,-32
5.321206,1775668807.552280,599617628355121124,-1084,-63,-30
5.326206,1775668807.552280,599617628355121124,-1091,-62,-27
5.331206,1775668807.552280,599617628355121124,-1097,-61,-23
5.336206,1775668807.552280,599617628355121124,-1100,-59,-17
5.341206,1775668807.552280,599617628355121124,-1099,-55,-8
5.346206,1775668807.552280,599617628355121124,-1095,-49,-5
5.351206,1775668807.552280,599617628355121124,-1088,-48,-4
5.356206,1775668807.552280,599617628355121124,-1080,-39,-2
5.361206,1775668807.552280,599617628355121124,-1065,-36,-5
5.366206,1775668807.552280,599617628355121124,-1051,-31,-7
5.371206,1775668807.552280,599617628355121124,-1035,-22,-4
5.376206,1775668807.552280,599617628355121124,-1024,-13,-1
5.381206,1775668807.552280,599617628355121124,-1013,-4,3
5.386206,1775668807.552280,599617628355121124,-999,0,6
5.391206,1775668807.552280,599617628355121124,-989,1,6
5.396206,1775668807.552280,599617628355121124,-981,3,5
5.401206,1775668807.552280,599617628355121124,-981,4,3
5.406206,1775668807.552280,599617628355121124,-977,2,9
5.411206,1775668807.552280,599617628355121124,-980,1,14
5.416206,1775668807.552280,599617628355121124,-985,0,28
5.421206,1775668807.552280,599617628355121124,-998,2,37
5.426206,1775668807.552280,599617628355121124,-1018,3,41
5.431206,1775668807.552280,599617628355121124,-1030,2,39
5.436206,1775668807.552280,599617628355121124,-1047,1,28
5.441206,1775668807.552280,599617628355121124,-1065,-5,21
5.446206,1775668807.552280,599617628355121124,-1080,-14,0
5.451206,1775668807.552280,599617628355121124,-1087,-26,-11
5.456206,1775668807.552280,599617628355121124,-1093,-41,-14
5.461206,1775668807.552280,599617628355121124,-1096,-50,-21
5.462447,1775668807.687318,599617628531362574,-1097,-58,-24
5.467447,1775668807.687318,599617628531362574,-1088,-66,-20
5.472447,1775668807.687318,599617628531362574,-1077,-75,-14
5.477447,1775668807.687318,599617628531362574,-1055,-77,1
5.482447,1775668807.687318,599617628531362574,-1039,-85,17
5.487447,1775668807.687318,599617628531362574,-1030,-82,33
5.492447,1775668807.687318,599617628531362574,-1025,-85,40
5.497447,1775668807.687318,599617628531362574,-1023,-90,47
5.502447,1775668807.687318,599617628531362574,-1022,-94,53
5.507447,1775668807.687318,599617628531362574,-1022,-102,48
5.512447,1775668807.687318,599617628531362574,-1020,-105,53
5.517447,1775668807.687318,599617628531362574,-1021,-109,60
5.522447,1775668807.687318,599617628531362574,-1023,-110,69
5.527447,1775668807.687318,599617628531362574,-1023,-109,79
5.532447,1775668807.687318,599617628531362574,-1020,-112,89
5.537447,1775668807.687318,599617628531362574,-1021,-112,87
5.542447,1775668807.687318,599617628531362574,-1021,-114,77
5.547447,1775668807.687318,599617628531362574,-1021,-113,62
5.552447,1775668807.687318,599617628531362574,-1020,-115,53
5.557447,1775668807.687318,599617628531362574,-1011,-116,47
5.562447,1775668807.687318,599617628531362574,-1001,-116,39
5.567447,1775668807.687318,599617628531362574,-995,-114,39
5.572447,1775668807.687318,599617628531362574,-994,-107,41
5.577447,1775668807.687318,599617628531362574,-988,-95,45
5.582447,1775668807.687318,599617628531362574,-982,-80,41
5.587447,1775668807.687318,599617628531362574,-979,-62,35
5.592447,1775668807.687318,599617628531362574,-980,-54,28
5.597447,1775668807.687318,599617628531362574,-980,-46,24
5.602447,1775668807.687318,599617628531362574,-988,-39,18
5.607447,1775668807.687318,599617628531362574,-997,-37,5
5.612447,1775668807.687318,599617628531362574,-1008,-36,-7
5.617447,1775668807.687318,599617628531362574,-1018,-38,-9
5.622447,1775668807.687318,599617628531362574,-1021,-44,-7
5.627447,1775668807.687318,599617628531362574,-1025,-49,7
5.632447,1775668807.687318,599617628531362574,-1031,-57,26
5.637447,1775668807.687318,599617628531362574,-1037,-61,42
5.638689,1775668807.866733,599617628707604024,-1050,-56,61
5.643689,1775668807.866733,599617628707604024,-1064,-61,64
5.648689,1775668807.866733,599617628707604024,-1071,-65,65
5.653689,1775668807.866733,599617628707604024,-1075,-69,69
5.658689,1775668807.866733,599617628707604024,-1068,-68,65
5.663689,1775668807.866733,599617628707604024,-1067,-69,68
5.668689,1775668807.866733,599617628707604024,-1066,-70,69
5.673689,1775668807.866733,599617628707604024,-1077,-70,68
5.678689,1775668807.866733,599617628707604024,-1084,-65,73
5.683689,1775668807.866733,599617628707604024,-1065,-55,95
5.688689,1775668807.866733,599617628707604024,-1048,-39,66
5.693689,1775668807.866733,599617628707604024,-1022,-18,42
5.698689,1775668807.866733,599617628707604024,-1016,-16,57
5.703689,1775668807.866733,599617628707604024,-1014,-28,99
5.708689,1775668807.866733,599617628707604024,-1016,-46,139
5.713689,1775668807.866733,599617628707604024,-1019,-61,128
5.718689,1775668807.866733,599617628707604024,-1021,-63,104
5.723689,1775668807.866733,599617628707604024,-1023,-79,70
5.728689,1775668807.866733,599617628707604024,-1016,-96,63
5.733689,1775668807.866733,599617628707604024,-1009,-108,62
5.738689,1775668807.866733,599617628707604024,-990,-117,64
5.743689,1775668807.866733,599617628707604024,-989,-125,62
5.748689,1775668807.866733,599617628707604024,-990,-136,55
5.753689,1775668807.866733,599617628707604024,-991,-146,58
5.758689,1775668807.866733,599617628707604024,-992,-168,65
5.763689,1775668807.866733,599617628707604024,-991,-177,61
5.768689,1775668807.866733,599617628707604024,-991,-177,61
5.773689,1775668807.866733,599617628707604024,-999,-182,66
5.778689,1775668807.866733,599617628707604024,-1004,-185,66
5.783689,1775668807.866733,599617628707604024,-1004,-191,63
5.788689,1775668807.866733,599617628707604024,-1003,-192,58
5.793689,1775668807.866733,599617628707604024,-1003,-196,55
5.798689,1775668807.866733,599617628707604024,-1001,-195,57
5.803689,1775668807.866733,599617628707604024,-1004,-195,56
5.808689,1775668807.866733,599617628707604024,-1006,-189,53
5.813689,1775668807.866733,599617628707604024,-1007,-187,60
5.814961,1775668808.048092,599617628883876002,-1004,-177,67
5.819961,1775668808.048092,599617628883876002,-1010,-166,78
5.824961,1775668808.048092,599617628883876002,-1006,-152,90
5.829961,1775668808.048092,599617628883876002,-1011,-137,96
5.834961,1775668808.048092,599617628883876002,-1018,-128,103
5.839961,1775668808.048092,599617628883876002,-1029,-119,108
5.844961,1775668808.048092,599617628883876002,-1040,-117,111
5.849961,1775668808.048092,599617628883876002,-1063,-109,108
5.854961,1775668808.048092,599617628883876002,-1081,-87,102
5.859961,1775668808.048092,599617628883876002,-1095,-61,91
5.864961,1775668808.048092,599617628883876002,-1107,-37,77
5.869961,1775668808.048092,599617628883876002,-1112,-12,61
5.874961,1775668808.048092,599617628883876002,-1100,6,52
5.879961,1775668808.048092,599617628883876002,-1079,25,43
5.884961,1775668808.048092,599617628883876002,-1044,50,40
5.889961,1775668808.048092,599617628883876002,-1020,80,44
5.894961,1775668808.048092,599617628883876002,-995,104,56
5.899961,1775668808.048092,599617628883876002,-975,118,83
5.904961,1775668808.048092,599617628883876002,-967,126,110
5.909961,1775668808.048092,599617628883876002,-981,140,142
5.914961,1775668808.048092,599617628883876002,-997,154,159
5.919961,1775668808.048092,599617628883876002,-1006,171,172
5.924961,1775668808.048092,599617628883876002,-1008,168,177
5.929961,1775668808.048092,599617628883876002,-1012,175,177
5.934961,1775668808.048092,599617628883876002,-1012,166,173
5.939961,1775668808.048092,599617628883876002,-1007,163,171
5.944961,1775668808.048092,599617628883876002,-1006,151,168
5.949961,1775668808.048092,599617628883876002,-1000,140,163
5.954961,1775668808.048092,599617628883876002,-1003,130,158
5.959961,1775668808.048092,599617628883876002,-1004,121,153
5.964961,1775668808.048092,599617628883876002,-1000,110,149
5.969961,1775668808.048092,599617628883876002,-995,89,139
5.974961,1775668808.048092,599617628883876002,-994,72,128
5.979961,1775668808.048092,599617628883876002,-983,56,127
5.984961,1775668808.048092,599617628883876002,-982,40,115
5.989961,1775668808.048092,599617628883876002,-978,28,110
5.991233,1775668808.227053,599617629060147970,-972,16,98
5.996233,1775668808.227053,599617629060147970,-969,15,86
6.001233,1775668808.227053,599617629060147970,-967,12,76
6.006233,1775668808.227053,599617629060147970,-956,12,65
6.011233,1775668808.227053,599617629060147970,-939,19,62
6.016233,1775668808.227053,599617629060147970,-928,28,62
6.021233,1775668808.227053,599617629060147970,-921,44,62
6.026233,1775668808.227053,599617629060147970,-919,57,71
6.031233,1775668808.227053,599617629060147970,-919,77,79
6.036233,1775668808.227053,599617629060147970,-920,102,84
6.041233,1775668808.227053,599617629060147970,-927,117,95
6.046233,1775668808.227053,599617629060147970,-939,134,103
6.051233,1775668808.227053,599617629060147970,-958,147,114
6.056233,1775668808.227053,599617629060147970,-981,161,124
6.061233,1775668808.227053,599617629060147970,-1004,185,127
6.066233,1775668808.227053,599617629060147970,-1022,197,117
6.071233,1775668808.227053,599617629060147970,-1037,208,110
6.076233,1775668808.227053,599617629060147970,-1057,222,99
6.081233,1775668808.227053,599617629060147970,-1082,233,95
6.086233,1775668808.227053,599617629060147970,-1098,240,91
6.091233,1775668808.227053,599617629060147970,-1116,244,94
6.096233,1775668808.227053,599617629060147970,-1131,249,93
6.101233,1775668808.227053,599617629060147970,-1136,255,97
6.106233,1775668808.227053,599617629060147970,-1135,255,103
6.111233,1775668808.227053,599617629060147970,-1124,252,113
6.116233,1775668808.227053,599617629060147970,-1106,250,132
6.121233,1775668808.227053,599617629060147970,-1090,246,142
6.126233,1775668808.227053,599617629060147970,-1079,242,146
6.131233,1775668808.227053,599617629060147970,-1063,234,156
6.136233,1775668808.227053,599617629060147970,-1050,227,153
6.141233,1775668808.227053,599617629060147970,-1042,218,155
6.146233,1775668808.227053,599617629060147970,-1030,212,161
6.151233,1775668808.227053,599617629060147970,-1023,204,170
6.156233,1775668808.227053,599617629060147970,-1019,200,181
6.161233,1775668808.227053,599617629060147970,-1008,200,180
6.166233,1775668808.227053,599617629060147970,-988,197,184
6.167444,1775668808.451830,599617629236358918,-974,200,175
6.172444,1775668808.451830,599617629236358918,-948,204,169
6.177444,1775668808.451830,599617629236358918,-924,198,162
6.182444,1775668808.451830,599617629236358918,-916,197,158
6.187444,1775668808.451830,599617629236358918,-907,199,156
6.192444,1775668808.451830,599617629236358918,-892,198,161
6.197444,1775668808.451830,599617629236358918,-885,193,161
6.202444,1775668808.451830,599617629236358918,-884,196,162
6.207444,1775668808.451830,599617629236358918,-883,189,169
6.212444,1775668808.451830,599617629236358918,-889,190,174
6.217444,1775668808.451830,599617629236358918,-888,185,171
6.222444,1775668808.451830,599617629236358918,-898,192,169
6.227444,1775668808.451830,599617629236358918,-896,195,171
6.232444,1775668808.451830,599617629236358918,-903,197,180
6.237444,1775668808.451830,599617629236358918,-907,196,199
6.242444,1775668808.451830,599617629236358918,-913,199,198
6.247444,1775668808.451830,599617629236358918,-921,199,205
6.252444,1775668808.451830,599617629236358918,-928,201,212
6.257444,1775668808.451830,599617629236358918,-940,207,216
6.262444,1775668808.451830,599617629236358918,-953,217,217
6.267444,1775668808.451830,599617629236358918,-963,223,217
6.272444,1775668808.451830,599617629236358918,-971,226,204
6.277444,1775668808.451830,599617629236358918,-978,231,198
6.282444,1775668808.451830,599617629236358918,-983,229,190
6.287444,1775668808.451830,599617629236358918,-989,228,184
6.292444,1775668808.451830,599617629236358918,-995,225,185
6.297444,1775668808.451830,599617629236358918,-1002,224,182
6.302444,1775668808.451830,599617629236358918,-1000,219,190
6.307444,1775668808.451830,599617629236358918,-1006,216,192
6.312444,1775668808.451830,599617629236358918,-1007,215,204
6.317444,1775668808.451830,599617629236358918,-1006,211,213
6.322444,1775668808.451830,599617629236358918,-1011,214,213
6.327444,1775668808.451830,599617629236358918,-1010,209,217
6.332444,1775668808.451830,599617629236358918,-1010,206,220
6.337444,1775668808.451830,599617629236358918,-1009,200,212
6.342444,1775668808.451830,599617629236358918,-1002,199,210
6.343655,1775668808.542926,599617629412569850,-993,195,217
6.348655,1775668808.542926,599617629412569850,-992,190,205
6.353655,1775668808.542926,599617629412569850,-992,190,204
6.358655,1775668808.542926,599617629412569850,-990,183,195
6.363655,1775668808.542926,599617629412569850,-983,178,197
6.368655,1775668808.542926,599617629412569850,-981,176,201
6.373655,1775668808.542926,599617629412569850,-978,173,210
6.378655,1775668808.542926,599617629412569850,-978,177,214
6.383655,1775668808.542926,599617629412569850,-969,179,213
6.388655,1775668808.542926,599617629412569850,-974,182,220
6.393655,1775668808.542926,599617629412569850,-972,182,214
6.398655,1775668808.542926,599617629412569850,-968,185,214
6.403655,1775668808.542926,599617629412569850,-971,180,204
6.408655,1775668808.542926,599617629412569850,-969,179,201
6.413655,1775668808.542926,599617629412569850,-970,182,200
6.418655,1775668808.542926,599617629412569850,-970,179,211
6.423655,1775668808.542926,599617629412569850,-969,182,221
6.428655,1775668808.542926,599617629412569850,-971,185,231
6.433655,1775668808.542926,599617629412569850,-976,179,237
6.438655,1775668808.542926,599617629412569850,-976,180,239
6.443655,1775668808.542926,599617629412569850,-978,180,237
6.448655,1775668808.542926,599617629412569850,-980,188,231
6.453655,1775668808.542926,599617629412569850,-979,182,224
6.458655,1775668808.542926,599617629412569850,-976,184,220
6.463655,1775668808.542926,599617629412569850,-978,185,226
6.468655,1775668808.542926,599617629412569850,-976,185,232
6.473655,1775668808.542926,599617629412569850,-974,189,225
6.478655,1775668808.542926,599617629412569850,-972,189,227
6.483655,1775668808.542926,599617629412569850,-972,188,225
6.488655,1775668808.542926,599617629412569850,-967,187,223
6.493655,1775668808.542926,599617629412569850,-971,189,226
6.498655,1775668808.542926,599617629412569850,-969,193,231
6.503655,1775668808.542926,599617629412569850,-967,198,236
6.508655,1775668808.542926,599617629412569850,-966,202,242
6.513655,1775668808.542926,599617629412569850,-969,210,243
6.518655,1775668808.542926,599617629412569850,-965,218,244
6.519927,1775668808.723288,599617629588841802,-965,222,244
6.524927,1775668808.723288,599617629588841802,-966,225,240
6.529927,1775668808.723288,599617629588841802,-970,230,240
6.534927,1775668808.723288,599617629588841802,-967,231,240
6.539927,1775668808.723288,599617629588841802,-968,231,241
6.544927,1775668808.723288,599617629588841802,-964,236,246
6.549927,1775668808.723288,599617629588841802,-965,234,242
6.554927,1775668808.723288,599617629588841802,-963,234,246
6.559927,1775668808.723288,599617629588841802,-962,234,248
6.564927,1775668808.723288,599617629588841802,-962,234,244
6.569927,1775668808.723288,599617629588841802,-960,236,252
6.574927,1775668808.723288,599617629588841802,-957,235,250
6.579927,1775668808.723288,599617629588841802,-958,241,250
6.584927,1775668808.723288,599617629588841802,-960,240,255
6.589927,1775668808.723288,599617629588841802,-960,239,260
6.594927,1775668808.723288,599617629588841802,-961,239,266
6.599927,1775668808.723288,599617629588841802,-962,239,263
6.604927,1775668808.723288,599617629588841802,-965,236,267
6.609927,1775668808.723288,599617629588841802,-959,236,261
6.614927,1775668808.723288,599617629588841802,-960,236,263
6.619927,1775668808.723288,599617629588841802,-956,229,257
6.624927,1775668808.723288,599617629588841802,-949,223,252
6.629927,1775668808.723288,599617629588841802,-946,221,250
6.634927,1775668808.723288,599617629588841802,-940,221,249
6.639927,1775668808.723288,599617629588841802,-941,219,257
6.644927,1775668808.723288,599617629588841802,-939,221,258
6.649927,1775668808.723288,599617629588841802,-941,219,258
6.654927,1775668808.723288,599617629588841802,-939,221,259
6.659927,1775668808.723288,599617629588841802,-947,220,259
6.664927,1775668808.723288,599617629588841802,-948,218,256
6.669927,1775668808.723288,599617629588841802,-944,215,260
6.674927,1775668808.723288,599617629588841802,-941,213,264
6.679927,1775668808.723288,599617629588841802,-938,212,264
6.684927,1775668808.723288,599617629588841802,-936,207,263
6.689927,1775668808.723288,599617629588841802,-935,203,267
6.694927,1775668808.723288,599617629588841802,-933,202,272
6.696259,1775668808.902275,599617629765174826,-933,197,275
6.701259,1775668808.902275,599617629765174826,-933,196,281
6.706259,1775668808.902275,599617629765174826,-939,195,280
6.711259,1775668808.902275,599617629765174826,-938,196,281
6.716259,1775668808.902275,599617629765174826,-938,195,278
6.721259,1775668808.902275,599617629765174826,-941,195,276
6.726259,1775668808.902275,599617629765174826,-943,196,275
6.731259,1775668808.902275,599617629765174826,-940,195,273
6.736259,1775668808.902275,599617629765174826,-937,195,271
6.741259,1775668808.902275,599617629765174826,-938,192,272
6.746259,1775668808.902275,599617629765174826,-938,189,274
6.751259,1775668808.902275,599617629765174826,-935,189,275
6.756259,1775668808.902275,599617629765174826,-937,190,276
6.761259,1775668808.902275,599617629765174826,-937,193,276
6.766259,1775668808.902275,599617629765174826,-937,194,282
6.771259,1775668808.902275,599617629765174826,-941,199,284
6.776259,1775668808.902275,599617629765174826,-940,196,284
6.781259,1775668808.902275,599617629765174826,-944,199,283
6.786259,1775668808.902275,599617629765174826,-944,198,283
6.791259,1775668808.902275,599617629765174826,-947,196,283
6.796259,1775668808.902275,599617629765174826,-944,199,285
6.801259,1775668808.902275,599617629765174826,-946,205,281
6.806259,1775668808.902275,599617629765174826,-942,209,280
6.811260,1775668808.902275,599617629765174826,-941,216,275
6.816260,1775668808.902275,599617629765174826,-944,217,275
6.821259,1775668808.902275,599617629765174826,-948,223,273
6.826259,1775668808.902275,599617629765174826,-947,220,264
6.831259,1775668808.902275,599617629765174826,-949,224,264
6.836259,1775668808.902275,599617629765174826,-948,222,258
6.841259,1775668808.902275,599617629765174826,-954,220,254
6.846259,1775668808.902275,599617629765174826,-952,214,266
6.851259,1775668808.902275,599617629765174826,-952,216,280
6.856259,1775668808.902275,599617629765174826,-965,215,286
6.861259,1775668808.902275,599617629765174826,-969,213,289
6.866259,1775668808.902275,599617629765174826,-978,209,279
6.871259,1775668808.902275,599617629765174826,-990,200,268
6.872532,1775668809.083467,599617629941446774,-998,196,256
6.877532,1775668809.083467,599617629941446774,-1016,189,251
6.882532,1775668809.083467,599617629941446774,-1027,176,259
6.887532,1775668809.083467,599617629941446774,-1039,177,260
6.892532,1775668809.083467,599617629941446774,-1059,175,260
6.897532,1775668809.083467,599617629941446774,-1074,180,264
6.902532,1775668809.083467,599617629941446774,-1073,179,270
6.907531,1775668809.083467,599617629941446774,-1060,174,281
6.912531,1775668809.083467,599617629941446774,-1036,169,296
6.917531,1775668809.083467,599617629941446774,-1024,161,306
6.922531,1775668809.083467,599617629941446774,-1004,149,311
6.927531,1775668809.083467,599617629941446774,-987,138,301
6.932531,1775668809.083467,599617629941446774,-974,127,283
6.937531,1775668809.083467,599617629941446774,-961,122,264
6.942531,1775668809.083467,599617629941446774,-948,115,239
6.947531,1775668809.083467,599617629941446774,-934,110,210
6.952531,1775668809.083467,599617629941446774,-936,105,201
6.957531,1775668809.083467,599617629941446774,-930,106,193
6.962531,1775668809.083467,599617629941446774,-931,111,198
6.967531,1775668809.083467,599617629941446774,-933,113,208
6.972531,1775668809.083467,599617629941446774,-933,118,225
6.977531,1775668809.083467,599617629941446774,-932,121,238
6.982531,1775668809.083467,599617629941446774,-936,121,246
6.987532,1775668809.083467,599617629941446774,-934,123,257
6.992532,1775668809.083467,599617629941446774,-936,123,254
6.997532,1775668809.083467,599617629941446774,-934,119,249
7.002532,1775668809.083467,599617629941446774,-939,117,240
7.007532,1775668809.083467,599617629941446774,-944,114,230
7.012532,1775668809.083467,599617629941446774,-948,108,219
7.017532,1775668809.083467,599617629941446774,-955,101,208
7.022532,1775668809.083467,599617629941446774,-961,94,196
7.027532,1775668809.083467,599617629941446774,-966,90,181
7.032531,1775668809.083467,599617629941446774,-969,83,172
7.037531,1775668809.083467,599617629941446774,-977,83,170
7.042531,1775668809.083467,599617629941446774,-983,77,165
7.047531,1775668809.083467,599617629941446774,-991,76,164
7.048773,1775668809.261214,599617630117688214,-997,71,171
7.053773,1775668809.261214,599617630117688214,-1002,72,178
7.058773,1775668809.261214,599617630117688214,-1000,65,194
7.063773,1775668809.261214,599617630117688214,-1004,58,211
7.068773,1775668809.261214,599617630117688214,-1005,52,222
7.073773,1775668809.261214,599617630117688214,-1005,51,233
7.078773,1775668809.261214,599617630117688214,-1003,46,237
7.083773,1775668809.261214,599617630117688214,-996,39,232
7.088773,1775668809.261214,599617630117688214,-989,29,220
7.093773,1775668809.261214,599617630117688214,-983,25,211
7.098773,1775668809.261214,599617630117688214,-982,22,209
7.103773,1775668809.261214,599617630117688214,-981,20,204
7.108773,1775668809.261214,599617630117688214,-977,19,201
7.113773,1775668809.261214,599617630117688214,-975,15,205
7.118773,1775668809.261214,599617630117688214,-974,18,201
7.123773,1775668809.261214,599617630117688214,-972,20,189
7.128773,1775668809.261214,599617630117688214,-973,18,183
7.133773,1775668809.261214,599617630117688214,-972,21,173
7.138773,1775668809.261214,599617630117688214,-971,23,175
7.143773,1775668809.261214,599617630117688214,-967,22,176
7.148773,1775668809.261214,599617630117688214,-969,20,178
7.153773,1775668809.261214,599617630117688214,-960,16,190
7.158773,1775668809.261214,599617630117688214,-957,15,196
7.163773,1775668809.261214,599617630117688214,-953,13,197
7.168773,1775668809.261214,599617630117688214,-943,7,196
7.173773,1775668809.261214,599617630117688214,-938,1,194
7.178773,1775668809.261214,599617630117688214,-933,-2,180
7.183773,1775668809.261214,599617630117688214,-928,-11,172
7.188773,1775668809.261214,599617630117688214,-929,-17,162
7.193773,1775668809.261214,599617630117688214,-928,-27,150
7.198773,1775668809.261214,599617630117688214,-935,-36,140
7.203773,1775668809.261214,599617630117688214,-944,-44,135
7.208773,1775668809.261214,599617630117688214,-956,-53,135
7.213773,1775668809.261214,599617630117688214,-970,-65,138
7.218773,1775668809.261214,599617630117688214,-980,-80,146
7.223773,1775668809.261214,599617630117688214,-999,-90,153
7.225045,1775668809.445925,599617630293960192,-1014,-106,163
7.230045,1775668809.445925,599617630293960192,-1026,-111,166
7.235045,1775668809.445925,599617630293960192,-1033,-118,178
7.240045,1775668809.445925,599617630293960192,-1043,-125,191
7.245045,1775668809.445925,599617630293960192,-1054,-124,210
7.250045,1775668809.445925,599617630293960192,-1062,-119,225
7.255045,1775668809.445925,599617630293960192,-1065,-118,239
7.260045,1775668809.445925,599617630293960192,-1065,-114,245
7.265045,1775668809.445925,599617630293960192,-1058,-108,248
7.270045,1775668809.445925,599617630293960192,-1057,-99,251
7.275045,1775668809.445925,599617630293960192,-1053,-90,252
7.280045,1775668809.445925,599617630293960192,-1053,-84,259
7.285045,1775668809.445925,599617630293960192,-1048,-82,263
7.290045,1775668809.445925,599617630293960192,-1043,-74,264
7.295045,1775668809.445925,599617630293960192,-1041,-72,259
7.300045,1775668809.445925,599617630293960192,-1037,-69,267
7.305045,1775668809.445925,599617630293960192,-1033,-69,261
7.310045,1775668809.445925,599617630293960192,-1032,-66,260
7.315045,1775668809.445925,599617630293960192,-1026,-64,260
7.320045,1775668809.445925,599617630293960192,-1023,-63,255
7.325045,1775668809.445925,599617630293960192,-1018,-65,249
7.330045,1775668809.445925,599617630293960192,-1005,-66,241
7.335045,1775668809.445925,599617630293960192,-999,-78,240
7.340045,1775668809.445925,599617630293960192,-990,-76,234
7.345045,1775668809.445925,599617630293960192,-986,-78,233
7.350045,1775668809.445925,599617630293960192,-982,-84,237
7.355045,1775668809.445925,599617630293960192,-975,-84,234
7.360045,1775668809.445925,599617630293960192,-971,-90,235
7.365045,1775668809.445925,599617630293960192,-957,-89,232
7.370045,1775668809.445925,599617630293960192,-945,-93,231
7.375045,1775668809.445925,599617630293960192,-932,-97,229
7.380045,1775668809.445925,599617630293960192,-922,-106,227
7.385045,1775668809.445925,599617630293960192,-918,-103,215
7.390045,1775668809.445925,599617630293960192,-915,-107,207
7.395045,1775668809.445925,599617630293960192,-911,-110,214
7.400045,1775668809.445925,599617630293960192,-906,-110,215
7.401256,1775668809.669085,599617630470171140,-905,-111,210
7.406256,1775668809.669085,599617630470171140,-903,-111,210
7.411256,1775668809.669085,599617630470171140,-907,-112,192
7.416256,1775668809.669085,599617630470171140,-912,-112,179
7.421256,1775668809.669085,599617630470171140,-916,-114,173
7.426256,1775668809.669085,599617630470171140,-917,-112,173
7.431256,1775668809.669085,599617630470171140,-917,-108,167
7.436256,1775668809.669085,599617630470171140,-918,-104,173
7.441256,1775668809.669085,599617630470171140,-920,-91,176
7.446256,1775668809.669085,599617630470171140,-925,-93,181
7.451256,1775668809.669085,599617630470171140,-931,-83,196
7.456256,1775668809.669085,599617630470171140,-942,-73,209
7.461256,1775668809.669085,599617630470171140,-946,-68,210
7.466256,1775668809.669085,599617630470171140,-962,-64,218
7.471256,1775668809.669085,599617630470171140,-972,-56,214
7.476256,1775668809.669085,599617630470171140,-976,-50,211
7.481256,1775668809.669085,599617630470171140,-976,-45,208
7.486256,1775668809.669085,599617630470171140,-980,-43,198
7.491256,1775668809.669085,599617630470171140,-982,-39,192
7.496256,1775668809.669085,599617630470171140,-985,-28,189
7.501256,1775668809.669085,599617630470171140,-992,-31,184
7.506256,1775668809.669085,599617630470171140,-994,-22,171
7.511256,1775668809.669085,599617630470171140,-999,-25,168
7.516256,1775668809.669085,599617630470171140,-1000,-23,171
7.521256,1775668809.669085,599617630470171140,-1000,-21,171
7.526256,1775668809.669085,599617630470171140,-1002,-22,168
7.531256,1775668809.669085,599617630470171140,-998,-21,166
7.536256,1775668809.669085,599617630470171140,-1001,-20,160
7.541256,1775668809.669085,599617630470171140,-995,-18,158
7.546256,1775668809.669085,599617630470171140,-991,-21,161
7.551256,1775668809.669085,599617630470171140,-991,-17,175
7.556256,1775668809.669085,599617630470171140,-988,-20,198
7.561256,1775668809.669085,599617630470171140,-986,-17,210
7.566256,1775668809.669085,599617630470171140,-991,-11,211
7.571256,1775668809.669085,599617630470171140,-993,-15,210
7.576256,1775668809.669085,599617630470171140,-999,-14,198
7.577497,1775668809.801754,599617630646412564,-1001,-19,194
7.582497,1775668809.801754,599617630646412564,-998,-18,182
7.587497,1775668809.801754,599617630646412564,-995,-20,176
7.592497,1775668809.801754,599617630646412564,-995,-21,171
7.597497,1775668809.801754,599617630646412564,-990,-25,181
7.602497,1775668809.801754,599617630646412564,-992,-27,187
7.607497,1775668809.801754,599617630646412564,-988,-26,193
7.612497,1775668809.801754,599617630646412564,-987,-26,202
7.617497,1775668809.801754,599617630646412564,-991,-31,206
7.622497,1775668809.801754,599617630646412564,-990,-30,216
7.627497,1775668809.801754,599617630646412564,-992,-29,218
7.632497,1775668809.801754,599617630646412564,-1000,-27,210
7.637497,1775668809.801754,599617630646412564,-1004,-21,213
7.642497,1775668809.801754,599617630646412564,-1008,-21,206
7.647497,1775668809.801754,599617630646412564,-1011,-27,205
7.652497,1775668809.801754,599617630646412564,-1016,-26,204
7.657497,1775668809.801754,599617630646412564,-1020,-29,197
7.662497,1775668809.801754,599617630646412564,-1020,-29,205
7.667497,1775668809.801754,599617630646412564,-1023,-33,207
7.672497,1775668809.801754,599617630646412564,-1024,-30,201
7.677497,1775668809.801754,599617630646412564,-1025,-36,205
7.682497,1775668809.801754,599617630646412564,-1027,-44,200
7.687497,1775668809.801754,599617630646412564,-1027,-46,194
7.692497,1775668809.801754,599617630646412564,-1028,-51,197
7.697497,1775668809.801754,599617630646412564,-1031,-54,193
7.702497,1775668809.801754,599617630646412564,-1032,-61,191
7.707497,1775668809.801754,599617630646412564,-1031,-66,183
7.712497,1775668809.801754,599617630646412564,-1032,-75,184
7.717497,1775668809.801754,599617630646412564,-1033,-91,185
7.722497,1775668809.801754,599617630646412564,-1032,-93,186
7.727497,1775668809.801754,599617630646412564,-1030,-103,179
7.732497,1775668809.801754,599617630646412564,-1029,-111,175
7.737497,1775668809.801754,599617630646412564,-1029,-116,176
7.742497,1775668809.801754,599617630646412564,-1029,-123,176
7.747497,1775668809.801754,599617630646412564,-1028,-130,180
7.752497,1775668809.801754,599617630646412564,-1032,-143,178
7.753678,1775668809.982291,599617630822592994,-1036,-152,177
7.758678,1775668809.982291,599617630822592994,-1036,-162,183
7.763678,1775668809.982291,599617630822592994,-1033,-167,187
7.768678,1775668809.982291,599617630822592994,-1038,-165,205
7.773678,1775668809.982291,599617630822592994,-1041,-170,213
7.778678,1775668809.982291,599617630822592994,-1046,-173,234
7.783678,1775668809.982291,599617630822592994,-1070,-165,261
7.788678,1775668809.982291,599617630822592994,-1109,-151,278
7.793678,1775668809.982291,599617630822592994,-1152,-136,290
7.798678,1775668809.982291,599617630822592994,-1202,-125,283
7.803678,1775668809.982291,599617630822592994,-1242,-120,251
7.808678,1775668809.982291,599617630822592994,-1241,-121,189
7.813678,1775668809.982291,599617630822592994,-1209,-116,143
7.818678,1775668809.982291,599617630822592994,-1154,-108,119
7.823678,1775668809.982291,599617630822592994,-1107,-90,137
7.828678,1775668809.982291,599617630822592994,-1087,-61,158
7.833678,1775668809.982291,599617630822592994,-1080,-31,177
7.838678,1775668809.982291,599617630822592994,-1090,-6,178
7.843678,1775668809.982291,599617630822592994,-1094,4,166
7.848678,1775668809.982291,599617630822592994,-1095,11,142
7.853678,1775668809.982291,599617630822592994,-1099,17,99
7.858678,1775668809.982291,599617630822592994,-1091,23,68
7.863678,1775668809.982291,599617630822592994,-1093,34,42
7.868678,1775668809.982291,599617630822592994,-1088,52,28
7.873678,1775668809.982291,599617630822592994,-1074,63,26
7.878678,1775668809.982291,599617630822592994,-1065,83,21
7.883678,1775668809.982291,599617630822592994,-1062,110,16
7.888678,1775668809.982291,599617630822592994,-1058,121,4
7.893678,1775668809.982291,599617630822592994,-1045,139,-1
7.898678,1775668809.982291,599617630822592994,-1042,163,-9
7.903678,1775668809.982291,599617630822592994,-1040,177,-20
7.908678,1775668809.982291,599617630822592994,-1048,170,-14
7.913678,1775668809.982291,599617630822592994,-1062,167,-11
7.918678,1775668809.982291,599617630822592994,-1084,144,-1
7.923678,1775668809.982291,599617630822592994,-1097,124,17
7.928678,1775668809.982291,599617630822592994,-1099,111,38
7.929889,1775668810.162267,599617630998803936,-1108,91,51
7.934889,1775668810.162267,599617630998803936,-1118,81,59
7.939889,1775668810.162267,599617630998803936,-1119,72,59
7.944889,1775668810.162267,599617630998803936,-1108,63,59
7.949889,1775668810.162267,599617630998803936,-1105,59,51
7.954889,1775668810.162267,599617630998803936,-1088,52,44
7.959889,1775668810.162267,599617630998803936,-1065,52,36
7.964889,1775668810.162267,599617630998803936,-1035,49,34
7.969889,1775668810.162267,599617630998803936,-1017,57,27
7.974889,1775668810.162267,599617630998803936,-989,59,22
7.979889,1775668810.162267,599617630998803936,-959,63,22
7.984889,1775668810.162267,599617630998803936,-928,63,26
7.989889,1775668810.162267,599617630998803936,-912,60,32
7.994889,1775668810.162267,599617630998803936,-896,62,32
7.999889,1775668810.162267,599617630998803936,-881,69,36
8.004889,1775668810.162267,599617630998803936,-860,69,41
8.009889,1775668810.162267,599617630998803936,-844,81,43
8.014889,1775668810.162267,599617630998803936,-836,91,49
8.019889,1775668810.162267,599617630998803936,-834,99,46
8.024889,1775668810.162267,599617630998803936,-825,112,56
8.029889,1775668810.162267,599617630998803936,-816,116,60
8.034889,1775668810.162267,599617630998803936,-815,121,66
8.039889,1775668810.162267,599617630998803936,-808,125,76
8.044889,1775668810.162267,599617630998803936,-815,128,83
8.049889,1775668810.162267,599617630998803936,-829,127,97
8.054889,1775668810.162267,599617630998803936,-841,122,116
8.059889,1775668810.162267,599617630998803936,-866,115,119
8.064889,1775668810.162267,599617630998803936,-903,112,122
8.069889,1775668810.162267,599617630998803936,-921,103,109
8.074889,1775668810.162267,599617630998803936,-951,98,101
8.079889,1775668810.162267,599617630998803936,-975,96,99
8.084889,1775668810.162267,599617630998803936,-989,91,102
8.089889,1775668810.162267,599617630998803936,-1005,96,101
8.094889,1775668810.162267,599617630998803936,-1018,99,101
8.099889,1775668810.162267,599617630998803936,-1022,99,99
8.104889,1775668810.162267,599617630998803936,-1026,102,91
8.106130,1775668810.342677,599617631175045360,-1025,111,87
8.111130,1775668810.342677,599617631175045360,-1030,114,87
8.116130,1775668810.342677,599617631175045360,-1029,121,95
8.121130,1775668810.342677,599617631175045360,-1027,130,100
8.126130,1775668810.342677,599617631175045360,-1023,141,99
8.131130,1775668810.342677,599617631175045360,-1022,154,95
8.136130,1775668810.342677,599617631175045360,-1021,164,90
8.141130,1775668810.342677,599617631175045360,-1017,165,91
8.146130,1775668810.342677,599617631175045360,-1013,173,88
8.151130,1775668810.342677,599617631175045360,-1013,180,90
8.156130,1775668810.342677,599617631175045360,-1011,183,92
8.161130,1775668810.342677,599617631175045360,-1005,185,96
8.166130,1775668810.342677,599617631175045360,-1005,190,103
8.171130,1775668810.342677,599617631175045360,-998,196,102
8.176130,1775668810.342677,599617631175045360,-997,200,110
8.181130,1775668810.342677,599617631175045360,-990,204,114
8.186130,1775668810.342677,599617631175045360,-984,209,115
8.191130,1775668810.342677,599617631175045360,-981,208,126
8.196130,1775668810.342677,599617631175045360,-978,211,127
8.201130,1775668810.342677,599617631175045360,-977,218,132
8.206130,1775668810.342677,599617631175045360,-974,228,131
8.211130,1775668810.342677,599617631175045360,-972,233,129
8.216130,1775668810.342677,599617631175045360,-963,239,131
8.221130,1775668810.342677,599617631175045360,-955,242,128
8.226130,1775668810.342677,599617631175045360,-943,246,127
8.231130,1775668810.342677,599617631175045360,-936,246,122
8.236130,1775668810.342677,599617631175045360,-933,243,125
8.241130,1775668810.342677,599617631175045360,-929,236,113
8.246130,1775668810.342677,599617631175045360,-928,229,113
8.251130,1775668810.342677,599617631175045360,-928,217,110
8.256130,1775668810.342677,599617631175045360,-921,211,123
8.261130,1775668810.342677,599617631175045360,-919,199,123
8.266130,1775668810.342677,599617631175045360,-935,174,129
8.271130,1775668810.342677,599617631175045360,-933,161,135
8.276130,1775668810.342677,599617631175045360,-941,154,120
8.281130,1775668810.342677,599617631175045360,-951,142,111
8.282372,1775668810.522692,599617631351286810,-954,136,104
8.287372,1775668810.522692,599617631351286810,-961,131,108
8.292372,1775668810.522692,599617631351286810,-967,126,110
8.297372,1775668810.522692,599617631351286810,-973,124,119
8.302372,1775668810.522692,599617631351286810,-975,124,118
8.307371,1775668810.522692,599617631351286810,-978,119,129
8.312371,1775668810.522692,599617631351286810,-981,116,130
8.317371,1775668810.522692,599617631351286810,-986,114,124
8.322371,1775668810.522692,599617631351286810,-991,110,123
8.327371,1775668810.522692,599617631351286810,-1000,114,122
8.332371,1775668810.522692,599617631351286810,-1007,114,114
8.337371,1775668810.522692,599617631351286810,-1013,114,119
8.342371,1775668810.522692,599617631351286810,-1019,115,121
8.347371,1775668810.522692,599617631351286810,-1019,115,133
8.352371,1775668810.522692,599617631351286810,-1021,117,140
8.357371,1775668810.522692,599617631351286810,-1021,118,146
8.362371,1775668810.522692,599617631351286810,-1021,120,145
8.367371,1775668810.522692,599617631351286810,-1020,119,149
8.372371,1775668810.522692,599617631351286810,-1013,121,148
8.377371,1775668810.522692,599617631351286810,-1007,122,153
8.382371,1775668810.522692,599617631351286810,-1007,121,156
8.387371,1775668810.522692,599617631351286810,-1007,120,160
8.392371,1775668810.522692,599617631351286810,-1004,120,166
8.397372,1775668810.522692,599617631351286810,-1002,121,164
8.402372,1775668810.522692,599617631351286810,-1010,119,165
8.407372,1775668810.522692,599617631351286810,-1015,117,167
8.412372,1775668810.522692,599617631351286810,-1020,116,164
8.417372,1775668810.522692,599617631351286810,-1021,116,160
8.422372,1775668810.522692,599617631351286810,-1023,117,156
8.427372,1775668810.522692,599617631351286810,-1017,119,159
8.432371,1775668810.522692,599617631351286810,-1019,119,153
8.437371,1775668810.522692,599617631351286810,-1020,124,160
8.442371,1775668810.522692,599617631351286810,-1009,123,166
8.447371,1775668810.522692,599617631351286810,-1008,125,168
8.452371,1775668810.522692,599617631351286810,-1008,125,167
8.457371,1775668810.522692,599617631351286810,-1010,126,171
8.458521,1775668810.656776,599617631527436712,-998,125,172
8.463521,1775668810.656776,599617631527436712,-1011,123,171
8.468521,1775668810.656776,599617631527436712,-996,121,181
8.473521,1775668810.656776,599617631527436712,-981,116,184
8.478521,1775668810.656776,599617631527436712,-976,114,183
8.483521,1775668810.656776,599617631527436712,-974,112,177
8.488521,1775668810.656776,599617631527436712,-984,113,170
8.493521,1775668810.656776,599617631527436712,-1006,114,171
8.498521,1775668810.656776,599617631527436712,-1008,112,166
8.503521,1775668810.656776,599617631527436712,-1001,109,169
8.508521,1775668810.656776,599617631527436712,-992,110,170
8.513521,1775668810.656776,599617631527436712,-992,114,164
8.518521,1775668810.656776,599617631527436712,-991,116,166
8.523521,1775668810.656776,599617631527436712,-995,117,169
8.528521,1775668810.656776,599617631527436712,-993,119,180
8.533521,1775668810.656776,599617631527436712,-991,119,185
8.538521,1775668810.656776,599617631527436712,-995,120,185
8.543521,1775668810.656776,599617631527436712,-1000,115,185
8.548521,1775668810.656776,599617631527436712,-1000,112,190
8.553521,1775668810.656776,599617631527436712,-997,116,191
8.558521,1775668810.656776,599617631527436712,-995,114,185
8.563521,1775668810.656776,599617631527436712,-1000,118,188
8.568521,1775668810.656776,599617631527436712,-1005,120,189
8.573521,1775668810.656776,599617631527436712,-1006,121,184
8.578521,1775668810.656776,599617631527436712,-1010,123,189
8.583521,1775668810.656776,599617631527436712,-1004,123,200
8.588521,1775668810.656776,599617631527436712,-998,122,210
8.593521,1775668810.656776,599617631527436712,-1002,121,228
8.598521,1775668810.656776,599617631527436712,-997,123,227
8.603521,1775668810.656776,599617631527436712,-995,124,229
8.608521,1775668810.656776,599617631527436712,-1004,126,229
8.613521,1775668810.656776,599617631527436712,-1015,125,223
8.618521,1775668810.656776,599617631527436712,-1018,124,226
8.623521,1775668810.656776,599617631527436712,-1010,125,225
8.628521,1775668810.656776,599617631527436712,-1003,123,233
8.633521,1775668810.656776,599617631527436712,-994,123,243
8.634732,1775668810.837651,599617631703647664,-992,123,251
8.639732,1775668810.837651,599617631703647664,-992,122,257
8.644732,1775668810.837651,599617631703647664,-998,125,251
8.649732,1775668810.837651,599617631703647664,-1009,120,254
8.654732,1775668810.837651,599617631703647664,-1015,119,256
8.659732,1775668810.837651,599617631703647664,-1022,118,260
8.664732,1775668810.837651,599617631703647664,-1032,110,256
8.669732,1775668810.837651,599617631703647664,-1060,106,247
8.674732,1775668810.837651,599617631703647664,-1099,102,233
8.679732,1775668810.837651,599617631703647664,-1135,103,215
8.684732,1775668810.837651,599617631703647664,-1152,100,184
8.689732,1775668810.837651,599617631703647664,-1154,109,164
8.694732,1775668810.837651,599617631703647664,-1146,115,148
8.699732,1775668810.837651,599617631703647664,-1125,116,138
8.704732,1775668810.837651,599617631703647664,-1085,117,139
8.709732,1775668810.837651,599617631703647664,-1050,119,143
8.714732,1775668810.837651,599617631703647664,-1033,122,142
8.719732,1775668810.837651,599617631703647664,-1023,123,138
8.724732,1775668810.837651,599617631703647664,-1014,121,128
8.729732,1775668810.837651,599617631703647664,-1010,119,118
8.734732,1775668810.837651,599617631703647664,-1002,113,92
8.739732,1775668810.837651,599617631703647664,-989,108,67
8.744732,1775668810.837651,599617631703647664,-976,99,51
8.749732,1775668810.837651,599617631703647664,-955,91,35
8.754732,1775668810.837651,599617631703647664,-932,84,35
8.759732,1775668810.837651,599617631703647664,-926,74,41
8.764732,1775668810.837651,599617631703647664,-926,68,50
8.769732,1775668810.837651,599617631703647664,-925,55,72
8.774732,1775668810.837651,599617631703647664,-935,45,94
8.779732,1775668810.837651,599617631703647664,-951,39,107
8.784732,1775668810.837651,599617631703647664,-966,33,104
8.789732,1775668810.837651,599617631703647664,-981,28,100
8.794732,1775668810.837651,599617631703647664,-992,25,91
8.799732,1775668810.837651,599617631703647664,-1012,25,86
8.804732,1775668810.837651,599617631703647664,-1019,31,83
8.809732,1775668810.837651,599617631703647664,-1025,28,70
8.810943,1775668811.016717,599617631879858596,-1029,20,74
8.815943,1775668811.016717,599617631879858596,-1031,25,57
8.820943,1775668811.016717,599617631879858596,-1028,26,49
8.825943,1775668811.016717,599617631879858596,-1025,19,43
8.830943,1775668811.016717,599617631879858596,-1022,15,49
8.835943,1775668811.016717,599617631879858596,-1021,12,52
8.840943,1775668811.016717,599617631879858596,-1018,7,65
8.845943,1775668811.016717,599617631879858596,-1011,3,65
8.850943,1775668811.016717,599617631879858596,-1001,-15,62
8.855943,1775668811.016717,599617631879858596,-991,-10,53
8.860943,1775668811.016717,599617631879858596,-981,-5,49
8.865943,1775668811.016717,599617631879858596,-971,-13,46
8.870943,1775668811.016717,599617631879858596,-959,-26,48
8.875943,1775668811.016717,599617631879858596,-958,-21,44
8.880943,1775668811.016717,599617631879858596,-944,-21,40
8.885943,1775668811.016717,599617631879858596,-933,-22,36
8.890943,1775668811.016717,599617631879858596,-928,-26,36
8.895943,1775668811.016717,599617631879858596,-930,-31,43
8.900943,1775668811.016717,599617631879858596,-933,-34,59
8.905943,1775668811.016717,599617631879858596,-952,-39,81
8.910943,1775668811.016717,599617631879858596,-976,-42,86
8.915943,1775668811.016717,599617631879858596,-994,-42,94
8.920943,1775668811.016717,599617631879858596,-1003,-48,90
8.925943,1775668811.016717,599617631879858596,-1005,-31,87
8.930943,1775668811.016717,599617631879858596,-1008,-31,90
8.935943,1775668811.016717,599617631879858596,-1013,-17,94
8.940943,1775668811.016717,599617631879858596,-1022,-16,106
8.945943,1775668811.016717,599617631879858596,-1039,-14,127
8.950943,1775668811.016717,599617631879858596,-1070,-61,135
8.955943,1775668811.016717,599617631879858596,-1092,45,114
8.960943,1775668811.016717,599617631879858596,-1087,3,129
8.965943,1775668811.016717,599617631879858596,-1094,5,150
8.970943,1775668811.016717,599617631879858596,-1083,-21,159
8.975943,1775668811.016717,599617631879858596,-1092,-203,227
8.980943,1775668811.016717,599617631879858596,-1110,54,152
8.985943,1775668811.016717,599617631879858596,-1135,-18,122
8.987154,1775668811.195833,599617632056069528,-1128,-37,172
8.992154,1775668811.195833,599617632056069528,-1069,-44,145
8.997154,1775668811.195833,599617632056069528,-1071,-5,159
9.002154,1775668811.195833,599617632056069528,-1060,-14,153
9.007154,1775668811.195833,599617632056069528,-1035,-21,149
9.012154,1775668811.195833,599617632056069528,-1014,-11,126
9.017154,1775668811.195833,599617632056069528,-986,-17,121
9.022154,1775668811.195833,599617632056069528,-981,-13,115
9.027154,1775668811.195833,599617632056069528,-982,-6,125
9.032154,1775668811.195833,599617632056069528,-977,-13,137
9.037154,1775668811.195833,599617632056069528,-964,-16,143
9.042154,1775668811.195833,599617632056069528,-946,-38,148
9.047154,1775668811.195833,599617632056069528,-938,-55,149
9.052154,1775668811.195833,599617632056069528,-938,-78,139
9.057154,1775668811.195833,599617632056069528,-935,-105,132
9.062154,1775668811.195833,599617632056069528,-941,-110,122
9.067154,1775668811.195833,599617632056069528,-949,-115,114
9.072154,1775668811.195833,599617632056069528,-962,-118,101
9.077154,1775668811.195833,599617632056069528,-968,-125,99
9.082154,1775668811.195833,599617632056069528,-966,-126,97
9.087154,1775668811.195833,599617632056069528,-966,-132,99
9.092154,1775668811.195833,599617632056069528,-955,-135,102
9.097154,1775668811.195833,599617632056069528,-938,-129,106
9.102154,1775668811.195833,599617632056069528,-926,-124,104
9.107154,1775668811.195833,599617632056069528,-918,-123,112
9.112154,1775668811.195833,599617632056069528,-917,-111,116
9.117154,1775668811.195833,599617632056069528,-918,-116,124
9.122154,1775668811.195833,599617632056069528,-924,-115,127
9.127154,1775668811.195833,599617632056069528,-951,-92,126
9.132154,1775668811.195833,599617632056069528,-962,-118,130
9.137154,1775668811.195833,599617632056069528,-982,-126,126
9.142154,1775668811.195833,599617632056069528,-998,-139,130
9.147154,1775668811.195833,599617632056069528,-1015,-133,122
9.152154,1775668811.195833,599617632056069528,-1020,-162,123
9.157154,1775668811.195833,599617632056069528,-1022,-159,117
9.162154,1775668811.195833,599617632056069528,-1022,-164,117
9.163365,1775668811.378770,599617632232280460,-1019,-152,108
9.168365,1775668811.378770,599617632232280460,-1003,-140,109
9.173365,1775668811.378770,599617632232280460,-988,-167,118
9.178365,1775668811.378770,599617632232280460,-978,-143,130
9.183365,1775668811.378770,599617632232280460,-967,-172,136
9.188365,1775668811.378770,599617632232280460,-971,-168,154
9.193365,1775668811.378770,599617632232280460,-968,-189,161
9.198365,1775668811.378770,599617632232280460,-975,-170,165
9.203365,1775668811.378770,599617632232280460,-978,-162,166
9.208365,1775668811.378770,599617632232280460,-980,-123,160
9.213365,1775668811.378770,599617632232280460,-984,-73,146
9.218365,1775668811.378770,599617632232280460,-975,-70,149
9.223365,1775668811.378770,599617632232280460,-982,-17,134
9.228365,1775668811.378770,599617632232280460,-971,-31,135
9.233365,1775668811.378770,599617632232280460,-964,-39,147
9.238365,1775668811.378770,599617632232280460,-964,-65,151
9.243365,1775668811.378770,599617632232280460,-965,-71,157
9.248365,1775668811.378770,599617632232280460,-971,-79,159
9.253365,1775668811.378770,599617632232280460,-980,-104,147
9.258365,1775668811.378770,599617632232280460,-985,-111,144
9.263365,1775668811.378770,599617632232280460,-988,-109,142
9.268365,1775668811.378770,599617632232280460,-982,-113,147
9.273365,1775668811.378770,599617632232280460,-976,-116,152
9.278365,1775668811.378770,599617632232280460,-973,-125,163
9.283365,1775668811.378770,599617632232280460,-976,-152,170
9.288365,1775668811.378770,599617632232280460,-981,-158,179
9.293365,1775668811.378770,599617632232280460,-984,-142,181
9.298365,1775668811.378770,599617632232280460,-983,-132,177
9.303365,1775668811.378770,599617632232280460,-980,-116,173
9.308365,1775668811.378770,599617632232280460,-976,-96,167
9.313365,1775668811.378770,599617632232280460,-964,-83,169
9.318365,1775668811.378770,599617632232280460,-953,-71,167
9.323365,1775668811.378770,599617632232280460,-943,-67,167
9.328365,1775668811.378770,599617632232280460,-934,-73,163
9.333365,1775668811.378770,599617632232280460,-923,-87,165
9.338365,1775668811.378770,599617632232280460,-923,-102,164
9.339576,1775668811.555916,599617632408491392,-919,-114,159
9.344576,1775668811.555916,599617632408491392,-920,-115,157
9.349576,1775668811.555916,599617632408491392,-923,-117,162
9.354576,1775668811.555916,599617632408491392,-937,-115,161
9.359576,1775668811.555916,599617632408491392,-958,-113,159
9.364576,1775668811.555916,599617632408491392,-977,-107,156
9.369576,1775668811.555916,599617632408491392,-977,-109,154
9.374576,1775668811.555916,599617632408491392,-973,-99,153
9.379576,1775668811.555916,599617632408491392,-971,-98,144
9.384576,1775668811.555916,599617632408491392,-965,-95,129
9.389576,1775668811.555916,599617632408491392,-954,-100,128
9.394576,1775668811.555916,599617632408491392,-945,-111,126
9.399576,1775668811.555916,599617632408491392,-945,-118,140
9.404576,1775668811.555916,599617632408491392,-955,-129,150
9.409576,1775668811.555916,599617632408491392,-966,-141,155
9.414576,1775668811.555916,599617632408491392,-975,-147,156
9.419576,1775668811.555916,599617632408491392,-980,-145,149
9.424576,1775668811.555916,599617632408491392,-987,-137,143
9.429576,1775668811.555916,599617632408491392,-987,-149,140
9.434576,1775668811.555916,599617632408491392,-993,-129,138
9.439576,1775668811.555916,599617632408491392,-984,-107,139
9.444576,1775668811.555916,599617632408491392,-972,-120,149
9.449576,1775668811.555916,599617632408491392,-987,-124,163
9.454576,1775668811.555916,599617632408491392,-979,-136,163
9.459576,1775668811.555916,599617632408491392,-997,-156,178
9.464576,1775668811.555916,599617632408491392,-1004,-158,170
9.469576,1775668811.555916,599617632408491392,-1009,-142,168
9.474576,1775668811.555916,599617632408491392,-1011,-142,170
9.479576,1775668811.555916,599617632408491392,-1013,-138,162
9.484576,1775668811.555916,599617632408491392,-1016,-122,159
9.489576,1775668811.555916,599617632408491392,-1018,-117,154
9.494576,1775668811.555916,599617632408491392,-1019,-112,152
9.499576,1775668811.555916,599617632408491392,-1016,-108,145
9.504576,1775668811.555916,599617632408491392,-1012,-104,146
9.509576,1775668811.555916,599617632408491392,-1013,-108,159
9.514576,1775668811.555916,599617632408491392,-1018,-112,172
9.515818,1775668811.736980,599617632584732816,-1033,-123,190
9.520818,1775668811.736980,599617632584732816,-1069,-123,220
9.525818,1775668811.736980,599617632584732816,-1135,-110,244
9.530818,1775668811.736980,599617632584732816,-1208,-99,231
9.535818,1775668811.736980,599617632584732816,-1268,-100,173
9.540817,1775668811.736980,599617632584732816,-1282,-110,65
9.545817,1775668811.736980,599617632584732816,-1265,-128,-15
9.550817,1775668811.736980,599617632584732816,-1198,-157,-53
9.555817,1775668811.736980,599617632584732816,-1139,-158,-37
9.560817,1775668811.736980,599617632584732816,-1098,-146,7
9.565817,1775668811.736980,599617632584732816,-1085,-112,32
9.570817,1775668811.736980,599617632584732816,-1087,-129,58
9.575817,1775668811.736980,599617632584732816,-1091,-116,42
9.580817,1775668811.736980,599617632584732816,-1075,-96,19
9.585817,1775668811.736980,599617632584732816,-1056,-66,-1
9.590817,1775668811.736980,599617632584732816,-1049,-16,-24
9.595817,1775668811.736980,599617632584732816,-1068,-11,-9
9.600817,1775668811.736980,599617632584732816,-1117,-25,-4
9.605817,1775668811.736980,599617632584732816,-1162,-17,-11
9.610817,1775668811.736980,599617632584732816,-1192,-43,-23
9.615817,1775668811.736980,599617632584732816,-1218,-60,-46
9.620817,1775668811.736980,599617632584732816,-1230,-95,-72
9.625817,1775668811.736980,599617632584732816,-1230,-112,-74
9.630818,1775668811.736980,599617632584732816,-1235,-147,-57
9.635818,1775668811.736980,599617632584732816,-1240,-146,-65
9.640818,1775668811.736980,599617632584732816,-1230,-123,-73
9.645818,1775668811.736980,599617632584732816,-1194,-119,-82
9.650818,1775668811.736980,599617632584732816,-1148,-105,-94
9.655818,1775668811.736980,599617632584732816,-1108,-83,-87
9.660818,1775668811.736980,599617632584732816,-1081,-84,-77
9.665817,1775668811.736980,599617632584732816,-1062,-9,-61
9.670817,1775668811.736980,599617632584732816,-1058,-17,-32
9.675817,1775668811.736980,599617632584732816,-1058,-36,-14
9.680817,1775668811.736980,599617632584732816,-1059,-45,-10
9.685817,1775668811.736980,599617632584732816,-1060,-45,-6
9.690817,1775668811.736980,599617632584732816,-1054,-39,-17
9.691967,1775668811.917933,599617632760882718,-1035,-35,-20
9.696967,1775668811.917933,599617632760882718,-1025,-42,-20
9.701967,1775668811.917933,599617632760882718,-1010,-63,-14
9.706967,1775668811.917933,599617632760882718,-989,-93,-20
9.711967,1775668811.917933,599617632760882718,-971,-88,-26
9.716967,1775668811.917933,599617632760882718,-953,-69,-43
9.721967,1775668811.917933,599617632760882718,-928,-64,-55
9.726967,1775668811.917933,599617632760882718,-917,-10,-73
9.731967,1775668811.917933,599617632760882718,-899,14,-87
9.736967,1775668811.917933,599617632760882718,-886,42,-102
9.741967,1775668811.917933,599617632760882718,-886,59,-115
9.746967,1775668811.917933,599617632760882718,-894,68,-117
9.751967,1775668811.917933,599617632760882718,-894,94,-117
9.756967,1775668811.917933,599617632760882718,-882,119,-110
9.761967,1775668811.917933,599617632760882718,-885,150,-102
