time,t_wall,t_device_ns,ecg
0.000000,1776081468.847364,599616561584118212,7114
0.007692,1776081468.847364,599616561584118212,6485
0.015385,1776081468.847364,599616561584118212,7180
0.023077,1776081468.847364,599616561584118212,7084
0.030769,1776081468.847364,599616561584118212,6547
0.038461,1776081468.847364,599616561584118212,6423
0.046154,1776081468.847364,599616561584118212,6270
0.053846,1776081468.847364,599616561584118212,6023
0.061538,1776081468.847364,599616561584118212,5936
0.069231,1776081468.847364,599616561584118212,5881
0.076923,1776081468.847364,599616561584118212,5707
0.084615,1776081468.847364,599616561584118212,5444
0.092308,1776081468.847364,599616561584118212,5245
0.100000,1776081468.847364,599616561584118212,5568
0.107692,1776081468.847364,599616561584118212,5710
0.115385,1776081468.847364,599616561584118212,4987
0.123077,1776081468.847364,599616561584118212,4765
0.130769,1776081468.847364,599616561584118212,4976
0.138461,1776081468.847364,599616561584118212,4685
0.146154,1776081468.847364,599616561584118212,4546
0.153846,1776081468.847364,599616561584118212,4614
0.161538,1776081468.847364,599616561584118212,4388
0.169231,1776081468.847364,599616561584118212,4136
0.176923,1776081468.847364,599616561584118212,4052
0.184615,1776081468.847364,599616561584118212,3940
0.192308,1776081468.847364,599616561584118212,3818
0.200000,1776081468.847364,599616561584118212,3800
0.207692,1776081468.847364,599616561584118212,3773
0.215385,1776081468.847364,599616561584118212,3638
0.223077,1776081468.847364,599616561584118212,3519
0.230769,1776081468.847364,599616561584118212,3480
0.238461,1776081468.847364,599616561584118212,3416
0.246154,1776081468.847364,599616561584118212,3329
0.253846,1776081468.847364,599616561584118212,3260
0.261538,1776081468.847364,599616561584118212,3240
0.269231,1776081468.847364,599616561584118212,3256
0.276923,1776081468.847364,599616561584118212,3155
0.284615,1776081468.847364,599616561584118212,2993
0.292308,1776081468.847364,599616561584118212,2963
0.300000,1776081468.847364,599616561584118212,2947
0.307692,1776081468.847364,599616561584118212,2837
0.315385,1776081468.847364,599616561584118212,2757
0.323077,1776081468.847364,599616561584118212,2721
0.330769,1776081468.847364,599616561584118212,2673
0.338462,1776081468.847364,599616561584118212,2668
0.346154,1776081468.847364,599616561584118212,2659
0.353846,1776081468.847364,599616561584118212,2570
0.361538,1776081468.847364,599616561584118212,2501
0.369231,1776081468.847364,599616561584118212,2481
0.376923,1776081468.847364,599616561584118212,2423
0.384615,1776081468.847364,599616561584118212,2389
0.392308,1776081468.847364,599616561584118212,2371
0.400000,1776081468.847364,599616561584118212,2279
0.407692,1776081468.847364,599616561584118212,2204
0.415385,1776081468.847364,599616561584118212,2197
0.423077,1776081468.847364,599616561584118212,2195
0.430769,1776081468.847364,599616561584118212,2222
0.438462,1776081468.847364,599616561584118212,2241
0.446154,1776081468.847364,599616561584118212,2179
0.453846,1776081468.847364,599616561584118212,2126
0.461538,1776081468.847364,599616561584118212,2110
0.469231,1776081468.847364,599616561584118212,2090
0.476923,1776081468.847364,599616561584118212,2076
0.484615,1776081468.847364,599616561584118212,2039
0.492308,1776081468.847364,599616561584118212,1957
0.500000,1776081468.847364,599616561584118212,1895
0.507692,1776081468.847364,599616561584118212,1868
0.515385,1776081468.847364,599616561584118212,1843
0.523077,1776081468.847364,599616561584118212,1824
0.530769,1776081468.847364,599616561584118212,1792
0.538461,1776081468.847364,599616561584118212,1751
0.546154,1776081468.847364,599616561584118212,1726
0.553846,1776081468.847364,599616561584118212,1694
0.561663,1776081469.386819,599616562145781656,1662
0.569356,1776081469.386819,599616562145781656,1651
0.577048,1776081469.386819,599616562145781656,1630
0.584740,1776081469.386819,599616562145781656,1589
0.592433,1776081469.386819,599616562145781656,1557
0.600125,1776081469.386819,599616562145781656,1541
0.607817,1776081469.386819,599616562145781656,1568
0.615510,1776081469.386819,599616562145781656,1628
0.623202,1776081469.386819,599616562145781656,1625
0.630894,1776081469.386819,599616562145781656,1522
0.638586,1776081469.386819,599616562145781656,1406
0.646279,1776081469.386819,599616562145781656,1358
0.653971,1776081469.386819,599616562145781656,1362
0.661663,1776081469.386819,599616562145781656,1319
0.669356,1776081469.386819,599616562145781656,1237
0.677048,1776081469.386819,599616562145781656,1198
0.684740,1776081469.386819,599616562145781656,1175
0.692433,1776081469.386819,599616562145781656,1058
0.700125,1776081469.386819,599616562145781656,1287
0.707817,1776081469.386819,599616562145781656,1687
0.715510,1776081469.386819,599616562145781656,1211
0.723202,1776081469.386819,599616562145781656,784
0.730894,1776081469.386819,599616562145781656,1175
0.738586,1776081469.386819,599616562145781656,1232
0.746279,1776081469.386819,599616562145781656,981
0.753971,1776081469.386819,599616562145781656,1063
0.761663,1776081469.386819,599616562145781656,1127
0.769356,1776081469.386819,599616562145781656,1029
0.777048,1776081469.386819,599616562145781656,1026
0.784740,1776081469.386819,599616562145781656,1061
0.792433,1776081469.386819,599616562145781656,1017
0.800125,1776081469.386819,599616562145781656,997
0.807817,1776081469.386819,599616562145781656,1003
0.815510,1776081469.386819,599616562145781656,983
0.823202,1776081469.386819,599616562145781656,969
0.830894,1776081469.386819,599616562145781656,976
0.838586,1776081469.386819,599616562145781656,965
0.846279,1776081469.386819,599616562145781656,923
0.853971,1776081469.386819,599616562145781656,862
0.861663,1776081469.386819,599616562145781656,862
0.869356,1776081469.386819,599616562145781656,933
0.877048,1776081469.386819,599616562145781656,882
0.884740,1776081469.386819,599616562145781656,736
0.892433,1776081469.386819,599616562145781656,704
0.900125,1776081469.386819,599616562145781656,715
0.907817,1776081469.386819,599616562145781656,667
0.915509,1776081469.386819,599616562145781656,638
0.923202,1776081469.386819,599616562145781656,638
0.930894,1776081469.386819,599616562145781656,619
0.938586,1776081469.386819,599616562145781656,603
0.946279,1776081469.386819,599616562145781656,601
0.953971,1776081469.386819,599616562145781656,587
0.961663,1776081469.386819,599616562145781656,573
0.969356,1776081469.386819,599616562145781656,564
0.977048,1776081469.386819,599616562145781656,544
0.984740,1776081469.386819,599616562145781656,525
0.992433,1776081469.386819,599616562145781656,516
1.000125,1776081469.386819,599616562145781656,507
1.007817,1776081469.386819,599616562145781656,493
1.015509,1776081469.386819,599616562145781656,477
1.023202,1776081469.386819,599616562145781656,459
1.030894,1776081469.386819,599616562145781656,445
1.038586,1776081469.386819,599616562145781656,434
1.046279,1776081469.386819,599616562145781656,427
1.053971,1776081469.386819,599616562145781656,418
1.061663,1776081469.386819,599616562145781656,409
1.069356,1776081469.386819,599616562145781656,395
1.077048,1776081469.386819,599616562145781656,372
1.084740,1776081469.386819,599616562145781656,365
1.092433,1776081469.386819,599616562145781656,361
1.100125,1776081469.386819,599616562145781656,347
1.107817,1776081469.386819,599616562145781656,336
1.115510,1776081469.386819,599616562145781656,322
1.123368,1776081469.929456,599616562707485792,315
1.131060,1776081469.929456,599616562707485792,297
1.138752,1776081469.929456,599616562707485792,272
1.146444,1776081469.929456,599616562707485792,267
1.154137,1776081469.929456,599616562707485792,262
1.161829,1776081469.929456,599616562707485792,235
1.169521,1776081469.929456,599616562707485792,235
1.177214,1776081469.929456,599616562707485792,294
1.184906,1776081469.929456,599616562707485792,354
1.192598,1776081469.929456,599616562707485792,345
1.200291,1776081469.929456,599616562707485792,251
1.207983,1776081469.929456,599616562707485792,144
1.215675,1776081469.929456,599616562707485792,112
1.223368,1776081469.929456,599616562707485792,123
1.231060,1776081469.929456,599616562707485792,109
1.238752,1776081469.929456,599616562707485792,102
1.246444,1776081469.929456,599616562707485792,109
1.254137,1776081469.929456,599616562707485792,100
1.261829,1776081469.929456,599616562707485792,-4
1.269521,1776081469.929456,599616562707485792,93
1.277214,1776081469.929456,599616562707485792,546
1.284906,1776081469.929456,599616562707485792,361
1.292598,1776081469.929456,599616562707485792,-226
1.300291,1776081469.929456,599616562707485792,6
1.307983,1776081469.929456,599616562707485792,258
1.315675,1776081469.929456,599616562707485792,16
1.323367,1776081469.929456,599616562707485792,13
1.331060,1776081469.929456,599616562707485792,125
1.338752,1776081469.929456,599616562707485792,57
1.346444,1776081469.929456,599616562707485792,41
1.354137,1776081469.929456,599616562707485792,96
1.361829,1776081469.929456,599616562707485792,75
1.369521,1776081469.929456,599616562707485792,45
1.377214,1776081469.929456,599616562707485792,54
1.384906,1776081469.929456,599616562707485792,59
1.392598,1776081469.929456,599616562707485792,54
1.400291,1776081469.929456,599616562707485792,52
1.407983,1776081469.929456,599616562707485792,59
1.415675,1776081469.929456,599616562707485792,48
1.423368,1776081469.929456,599616562707485792,2
1.431060,1776081469.929456,599616562707485792,6
1.438752,1776081469.929456,599616562707485792,100
1.446444,1776081469.929456,599616562707485792,86
1.454137,1776081469.929456,599616562707485792,-64
1.461829,1776081469.929456,599616562707485792,-105
1.469521,1776081469.929456,599616562707485792,-59
1.477214,1776081469.929456,599616562707485792,-82
1.484906,1776081469.929456,599616562707485792,-107
1.492598,1776081469.929456,599616562707485792,-100
1.500291,1776081469.929456,599616562707485792,-105
1.507983,1776081469.929456,599616562707485792,-112
1.515675,1776081469.929456,599616562707485792,-102
1.523368,1776081469.929456,599616562707485792,-100
1.531060,1776081469.929456,599616562707485792,-102
1.538752,1776081469.929456,599616562707485792,-107
1.546444,1776081469.929456,599616562707485792,-107
1.554137,1776081469.929456,599616562707485792,-112
1.561829,1776081469.929456,599616562707485792,-125
1.569521,1776081469.929456,599616562707485792,-123
1.577214,1776081469.929456,599616562707485792,-114
1.584906,1776081469.929456,599616562707485792,-112
1.592598,1776081469.929456,599616562707485792,-114
1.600291,1776081469.929456,599616562707485792,-112
1.607983,1776081469.929456,599616562707485792,-116
1.615675,1776081469.929456,599616562707485792,-128
1.623368,1776081469.929456,599616562707485792,-130
1.631060,1776081469.929456,599616562707485792,-130
1.638752,1776081469.929456,599616562707485792,-132
1.646444,1776081469.929456,599616562707485792,-137
1.654137,1776081469.929456,599616562707485792,-148
1.661829,1776081469.929456,599616562707485792,-160
1.669521,1776081469.929456,599616562707485792,-171
1.677214,1776081469.929456,599616562707485792,-178
1.685041,1776081470.511255,599616563269159408,-173
1.692733,1776081470.511255,599616563269159408,-166
1.700426,1776081470.511255,599616563269159408,-185
1.708118,1776081470.511255,599616563269159408,-205
1.715810,1776081470.511255,599616563269159408,-203
1.723503,1776081470.511255,599616563269159408,-198
1.731195,1776081470.511255,599616563269159408,-212
1.738887,1776081470.511255,599616563269159408,-233
1.746580,1776081470.511255,599616563269159408,-226
1.754272,1776081470.511255,599616563269159408,-214
1.761964,1776081470.511255,599616563269159408,-221
1.769657,1776081470.511255,599616563269159408,-210
1.777349,1776081470.511255,599616563269159408,-192
1.785041,1776081470.511255,599616563269159408,-201
1.792733,1776081470.511255,599616563269159408,-205
1.800426,1776081470.511255,599616563269159408,-194
1.808118,1776081470.511255,599616563269159408,-189
1.815810,1776081470.511255,599616563269159408,-198
1.823503,1776081470.511255,599616563269159408,-201
1.831195,1776081470.511255,599616563269159408,-192
1.838887,1776081470.511255,599616563269159408,-182
1.846580,1776081470.511255,599616563269159408,-182
1.854272,1776081470.511255,599616563269159408,-178
1.861964,1776081470.511255,599616563269159408,-171
1.869657,1776081470.511255,599616563269159408,-148
1.877349,1776081470.511255,599616563269159408,-82
1.885041,1776081470.511255,599616563269159408,-29
1.892733,1776081470.511255,599616563269159408,-66
1.900426,1776081470.511255,599616563269159408,-169
1.908118,1776081470.511255,599616563269159408,-237
1.915810,1776081470.511255,599616563269159408,-242
1.923503,1776081470.511255,599616563269159408,-237
1.931195,1776081470.511255,599616563269159408,-230
1.938887,1776081470.511255,599616563269159408,-224
1.946580,1776081470.511255,599616563269159408,-221
1.954272,1776081470.511255,599616563269159408,-244
1.961964,1776081470.511255,599616563269159408,-356
1.969657,1776081470.511255,599616563269159408,-27
1.977349,1776081470.511255,599616563269159408,407
1.985041,1776081470.511255,599616563269159408,-169
1.992733,1776081470.511255,599616563269159408,-539
2.000426,1776081470.511255,599616563269159408,-98
2.008118,1776081470.511255,599616563269159408,-114
2.015810,1776081470.511255,599616563269159408,-338
2.023503,1776081470.511255,599616563269159408,-205
2.031195,1776081470.511255,599616563269159408,-146
2.038887,1776081470.511255,599616563269159408,-226
2.046580,1776081470.511255,599616563269159408,-203
2.054272,1776081470.511255,599616563269159408,-169
2.061964,1776081470.511255,599616563269159408,-187
2.069656,1776081470.511255,599616563269159408,-178
2.077349,1776081470.511255,599616563269159408,-155
2.085041,1776081470.511255,599616563269159408,-155
2.092734,1776081470.511255,599616563269159408,-160
2.100426,1776081470.511255,599616563269159408,-157
2.108118,1776081470.511255,599616563269159408,-150
2.115810,1776081470.511255,599616563269159408,-166
2.123503,1776081470.511255,599616563269159408,-210
2.131195,1776081470.511255,599616563269159408,-182
2.138887,1776081470.511255,599616563269159408,-68
2.146580,1776081470.511255,599616563269159408,-84
2.154272,1776081470.511255,599616563269159408,-221
2.161964,1776081470.511255,599616563269159408,-251
2.169657,1776081470.511255,599616563269159408,-226
2.177349,1776081470.511255,599616563269159408,-256
2.185041,1776081470.511255,599616563269159408,-258
2.192733,1776081470.511255,599616563269159408,-230
2.200426,1776081470.511255,599616563269159408,-235
2.208118,1776081470.511255,599616563269159408,-240
2.215810,1776081470.511255,599616563269159408,-228
2.223503,1776081470.511255,599616563269159408,-233
2.231195,1776081470.511255,599616563269159408,-242
2.238887,1776081470.511255,599616563269159408,-242
2.246705,1776081471.052170,599616563830822854,-233
2.254397,1776081471.052170,599616563830822854,-235
2.262089,1776081471.052170,599616563830822854,-242
2.269782,1776081471.052170,599616563830822854,-233
2.277474,1776081471.052170,599616563830822854,-226
2.285166,1776081471.052170,599616563830822854,-226
2.292858,1776081471.052170,599616563830822854,-224
2.300551,1776081471.052170,599616563830822854,-228
2.308243,1776081471.052170,599616563830822854,-224
2.315935,1776081471.052170,599616563830822854,-212
2.323628,1776081471.052170,599616563830822854,-219
2.331320,1776081471.052170,599616563830822854,-224
2.339012,1776081471.052170,599616563830822854,-212
2.346705,1776081471.052170,599616563830822854,-208
2.354397,1776081471.052170,599616563830822854,-219
2.362089,1776081471.052170,599616563830822854,-221
2.369782,1776081471.052170,599616563830822854,-212
2.377474,1776081471.052170,599616563830822854,-208
2.385166,1776081471.052170,599616563830822854,-210
2.392859,1776081471.052170,599616563830822854,-214
2.400551,1776081471.052170,599616563830822854,-214
2.408243,1776081471.052170,599616563830822854,-219
2.415935,1776081471.052170,599616563830822854,-228
2.423628,1776081471.052170,599616563830822854,-224
2.431320,1776081471.052170,599616563830822854,-212
2.439012,1776081471.052170,599616563830822854,-208
2.446705,1776081471.052170,599616563830822854,-203
2.454397,1776081471.052170,599616563830822854,-194
2.462089,1776081471.052170,599616563830822854,-182
2.469782,1776081471.052170,599616563830822854,-169
2.477474,1776081471.052170,599616563830822854,-162
2.485166,1776081471.052170,599616563830822854,-169
2.492859,1776081471.052170,599616563830822854,-176
2.500551,1776081471.052170,599616563830822854,-173
2.508243,1776081471.052170,599616563830822854,-169
2.515935,1776081471.052170,599616563830822854,-169
2.523628,1776081471.052170,599616563830822854,-169
2.531320,1776081471.052170,599616563830822854,-164
2.539012,1776081471.052170,599616563830822854,-166
2.546705,1776081471.052170,599616563830822854,-178
2.554397,1776081471.052170,599616563830822854,-180
2.562089,1776081471.052170,599616563830822854,-169
2.569782,1776081471.052170,599616563830822854,-169
2.577474,1776081471.052170,599616563830822854,-178
2.585166,1776081471.052170,599616563830822854,-185
2.592859,1776081471.052170,599616563830822854,-189
2.600551,1776081471.052170,599616563830822854,-185
2.608243,1776081471.052170,599616563830822854,-178
2.615935,1776081471.052170,599616563830822854,-182
2.623628,1776081471.052170,599616563830822854,-182
2.631320,1776081471.052170,599616563830822854,-176
2.639012,1776081471.052170,599616563830822854,-187
2.646705,1776081471.052170,599616563830822854,-187
2.654397,1776081471.052170,599616563830822854,-173
2.662089,1776081471.052170,599616563830822854,-169
2.669782,1776081471.052170,599616563830822854,-173
2.677474,1776081471.052170,599616563830822854,-180
2.685166,1776081471.052170,599616563830822854,-189
2.692858,1776081471.052170,599616563830822854,-194
2.700551,1776081471.052170,599616563830822854,-189
2.708243,1776081471.052170,599616563830822854,-178
2.715935,1776081471.052170,599616563830822854,-176
2.723628,1776081471.052170,599616563830822854,-173
2.731320,1776081471.052170,599616563830822854,-178
2.739012,1776081471.052170,599616563830822854,-185
2.746705,1776081471.052170,599616563830822854,-173
2.754397,1776081471.052170,599616563830822854,-146
2.762089,1776081471.052170,599616563830822854,-98
2.769782,1776081471.052170,599616563830822854,-45
2.777474,1776081471.052170,599616563830822854,-66
2.785166,1776081471.052170,599616563830822854,-157
2.792858,1776081471.052170,599616563830822854,-235
2.800551,1776081471.052170,599616563830822854,-251
2.808388,1776081471.592312,599616564392506644,-233
2.816081,1776081471.592312,599616564392506644,-240
2.823773,1776081471.592312,599616564392506644,-244
2.831465,1776081471.592312,599616564392506644,-233
2.839158,1776081471.592312,599616564392506644,-299
2.846850,1776081471.592312,599616564392506644,-359
2.854542,1776081471.592312,599616564392506644,123
2.862234,1776081471.592312,599616564392506644,356
2.869927,1776081471.592312,599616564392506644,-404
2.877619,1776081471.592312,599616564392506644,-521
2.885311,1776081471.592312,599616564392506644,-38
2.893004,1776081471.592312,599616564392506644,-201
2.900696,1776081471.592312,599616564392506644,-347
2.908388,1776081471.592312,599616564392506644,-173
2.916081,1776081471.592312,599616564392506644,-162
2.923773,1776081471.592312,599616564392506644,-217
2.931465,1776081471.592312,599616564392506644,-164
2.939158,1776081471.592312,599616564392506644,-150
2.946850,1776081471.592312,599616564392506644,-187
2.954542,1776081471.592312,599616564392506644,-185
2.962234,1776081471.592312,599616564392506644,-171
2.969927,1776081471.592312,599616564392506644,-173
2.977619,1776081471.592312,599616564392506644,-169
2.985311,1776081471.592312,599616564392506644,-169
2.993004,1776081471.592312,599616564392506644,-180
3.000696,1776081471.592312,599616564392506644,-210
3.008388,1776081471.592312,599616564392506644,-258
3.016081,1776081471.592312,599616564392506644,-221
3.023773,1776081471.592312,599616564392506644,-93
3.031465,1776081471.592312,599616564392506644,-109
3.039158,1776081471.592312,599616564392506644,-253
3.046850,1776081471.592312,599616564392506644,-274
3.054542,1776081471.592312,599616564392506644,-221
3.062235,1776081471.592312,599616564392506644,-235
3.069927,1776081471.592312,599616564392506644,-251
3.077619,1776081471.592312,599616564392506644,-228
3.085311,1776081471.592312,599616564392506644,-219
3.093004,1776081471.592312,599616564392506644,-226
3.100696,1776081471.592312,599616564392506644,-226
3.108388,1776081471.592312,599616564392506644,-233
3.116081,1776081471.592312,599616564392506644,-235
3.123773,1776081471.592312,599616564392506644,-212
3.131465,1776081471.592312,599616564392506644,-210
3.139158,1776081471.592312,599616564392506644,-221
3.146850,1776081471.592312,599616564392506644,-210
3.154542,1776081471.592312,599616564392506644,-185
3.162234,1776081471.592312,599616564392506644,-180
3.169927,1776081471.592312,599616564392506644,-192
3.177619,1776081471.592312,599616564392506644,-205
3.185311,1776081471.592312,599616564392506644,-201
3.193004,1776081471.592312,599616564392506644,-187
3.200696,1776081471.592312,599616564392506644,-180
3.208388,1776081471.592312,599616564392506644,-178
3.216081,1776081471.592312,599616564392506644,-173
3.223773,1776081471.592312,599616564392506644,-164
3.231465,1776081471.592312,599616564392506644,-173
3.239158,1776081471.592312,599616564392506644,-176
3.246850,1776081471.592312,599616564392506644,-153
3.254542,1776081471.592312,599616564392506644,-150
3.262234,1776081471.592312,599616564392506644,-166
3.269927,1776081471.592312,599616564392506644,-157
3.277619,1776081471.592312,599616564392506644,-146
3.285311,1776081471.592312,599616564392506644,-150
3.293004,1776081471.592312,599616564392506644,-160
3.300696,1776081471.592312,599616564392506644,-155
3.308388,1776081471.592312,599616564392506644,-144
3.316081,1776081471.592312,599616564392506644,-150
3.323773,1776081471.592312,599616564392506644,-157
3.331465,1776081471.592312,599616564392506644,-146
3.339158,1776081471.592312,599616564392506644,-137
3.346850,1776081471.592312,599616564392506644,-150
3.354542,1776081471.592312,599616564392506644,-155
3.362234,1776081471.592312,599616564392506644,-137
3.370077,1776081472.221924,599616564954195520,-132
3.377769,1776081472.221924,599616564954195520,-139
3.385462,1776081472.221924,599616564954195520,-128
3.393154,1776081472.221924,599616564954195520,-125
3.400846,1776081472.221924,599616564954195520,-139
3.408539,1776081472.221924,599616564954195520,-134
3.416231,1776081472.221924,599616564954195520,-121
3.423923,1776081472.221924,599616564954195520,-123
3.431616,1776081472.221924,599616564954195520,-128
3.439308,1776081472.221924,599616564954195520,-128
3.447000,1776081472.221924,599616564954195520,-123
3.454693,1776081472.221924,599616564954195520,-112
3.462385,1776081472.221924,599616564954195520,-109
3.470077,1776081472.221924,599616564954195520,-109
3.477769,1776081472.221924,599616564954195520,-100
3.485462,1776081472.221924,599616564954195520,-96
3.493154,1776081472.221924,599616564954195520,-105
3.500847,1776081472.221924,599616564954195520,-105
3.508539,1776081472.221924,599616564954195520,-102
3.516231,1776081472.221924,599616564954195520,-105
3.523923,1776081472.221924,599616564954195520,-100
3.531616,1776081472.221924,599616564954195520,-96
3.539308,1776081472.221924,599616564954195520,-80
3.547000,1776081472.221924,599616564954195520,-20
3.554693,1776081472.221924,599616564954195520,52
3.562385,1776081472.221924,599616564954195520,50
3.570077,1776081472.221924,599616564954195520,-59
3.577770,1776081472.221924,599616564954195520,-155
3.585462,1776081472.221924,599616564954195520,-157
3.593154,1776081472.221924,599616564954195520,-141
3.600846,1776081472.221924,599616564954195520,-176
3.608539,1776081472.221924,599616564954195520,-189
3.616231,1776081472.221924,599616564954195520,-144
3.623923,1776081472.221924,599616564954195520,-160
3.631616,1776081472.221924,599616564954195520,-256
3.639308,1776081472.221924,599616564954195520,162
3.647000,1776081472.221924,599616564954195520,496
3.654693,1776081472.221924,599616564954195520,-221
3.662385,1776081472.221924,599616564954195520,-475
3.670077,1776081472.221924,599616564954195520,50
3.677770,1776081472.221924,599616564954195520,-11
3.685462,1776081472.221924,599616564954195520,-267
3.693154,1776081472.221924,599616564954195520,-155
3.700846,1776081472.221924,599616564954195520,-73
3.708539,1776081472.221924,599616564954195520,-134
3.716231,1776081472.221924,599616564954195520,-123
3.723923,1776081472.221924,599616564954195520,-43
3.731616,1776081472.221924,599616564954195520,27
3.739308,1776081472.221924,599616564954195520,132
3.747000,1776081472.221924,599616564954195520,251
3.754693,1776081472.221924,599616564954195520,304
3.762385,1776081472.221924,599616564954195520,324
3.770077,1776081472.221924,599616564954195520,356
3.777770,1776081472.221924,599616564954195520,361
3.785462,1776081472.221924,599616564954195520,292
3.793154,1776081472.221924,599616564954195520,214
3.800846,1776081472.221924,599616564954195520,265
3.808539,1776081472.221924,599616564954195520,352
3.816231,1776081472.221924,599616564954195520,242
3.823923,1776081472.221924,599616564954195520,43
3.831616,1776081472.221924,599616564954195520,-54
3.839308,1776081472.221924,599616564954195520,-132
3.847000,1776081472.221924,599616564954195520,-219
3.854693,1776081472.221924,599616564954195520,-205
3.862385,1776081472.221924,599616564954195520,-166
3.870077,1776081472.221924,599616564954195520,-288
3.877769,1776081472.221924,599616564954195520,-352
3.885462,1776081472.221924,599616564954195520,-173
3.893154,1776081472.221924,599616564954195520,-82
3.900846,1776081472.221924,599616564954195520,-84
3.908539,1776081472.221924,599616564954195520,64
3.916231,1776081472.221924,599616564954195520,189
3.923923,1776081472.221924,599616564954195520,230
3.931736,1776081472.806753,599616565515853878,251
3.939428,1776081472.806753,599616565515853878,134
3.947120,1776081472.806753,599616565515853878,-57
3.954813,1776081472.806753,599616565515853878,-185
3.962505,1776081472.806753,599616565515853878,-246
3.970197,1776081472.806753,599616565515853878,-299
3.977889,1776081472.806753,599616565515853878,-288
3.985582,1776081472.806753,599616565515853878,-148
3.993274,1776081472.806753,599616565515853878,-9
4.000966,1776081472.806753,599616565515853878,29
4.008659,1776081472.806753,599616565515853878,146
4.016351,1776081472.806753,599616565515853878,457
4.024043,1776081472.806753,599616565515853878,660
4.031736,1776081472.806753,599616565515853878,610
4.039428,1776081472.806753,599616565515853878,532
4.047120,1776081472.806753,599616565515853878,525
4.054813,1776081472.806753,599616565515853878,569
4.062505,1776081472.806753,599616565515853878,619
4.070197,1776081472.806753,599616565515853878,610
4.077889,1776081472.806753,599616565515853878,601
4.085582,1776081472.806753,599616565515853878,619
4.093274,1776081472.806753,599616565515853878,525
4.100966,1776081472.806753,599616565515853878,308
4.108659,1776081472.806753,599616565515853878,182
4.116351,1776081472.806753,599616565515853878,265
4.124043,1776081472.806753,599616565515853878,349
4.131736,1776081472.806753,599616565515853878,246
4.139428,1776081472.806753,599616565515853878,130
4.147120,1776081472.806753,599616565515853878,141
4.154813,1776081472.806753,599616565515853878,146
4.162505,1776081472.806753,599616565515853878,162
4.170197,1776081472.806753,599616565515853878,322
4.177889,1776081472.806753,599616565515853878,459
4.185582,1776081472.806753,599616565515853878,448
4.193274,1776081472.806753,599616565515853878,400
4.200966,1776081472.806753,599616565515853878,363
4.208659,1776081472.806753,599616565515853878,311
4.216351,1776081472.806753,599616565515853878,283
4.224043,1776081472.806753,599616565515853878,324
4.231736,1776081472.806753,599616565515853878,363
4.239428,1776081472.806753,599616565515853878,329
4.247120,1776081472.806753,599616565515853878,246
4.254812,1776081472.806753,599616565515853878,132
4.262505,1776081472.806753,599616565515853878,45
4.270197,1776081472.806753,599616565515853878,100
4.277889,1776081472.806753,599616565515853878,308
4.285582,1776081472.806753,599616565515853878,155
4.293274,1776081472.806753,599616565515853878,-336
4.300966,1776081472.806753,599616565515853878,-281
4.308659,1776081472.806753,599616565515853878,-66
4.316351,1776081472.806753,599616565515853878,-274
4.324043,1776081472.806753,599616565515853878,-354
4.331736,1776081472.806753,599616565515853878,-285
4.339428,1776081472.806753,599616565515853878,-400
4.347120,1776081472.806753,599616565515853878,-498
4.354813,1776081472.806753,599616565515853878,-418
4.362505,1776081472.806753,599616565515853878,-292
4.370197,1776081472.806753,599616565515853878,-226
4.377889,1776081472.806753,599616565515853878,-230
4.385582,1776081472.806753,599616565515853878,-260
4.393274,1776081472.806753,599616565515853878,-260
4.400966,1776081472.806753,599616565515853878,-235
4.408659,1776081472.806753,599616565515853878,-198
4.416351,1776081472.806753,599616565515853878,-137
4.424043,1776081472.806753,599616565515853878,-4
4.431736,1776081472.806753,599616565515853878,118
4.439428,1776081472.806753,599616565515853878,118
4.447120,1776081472.806753,599616565515853878,121
4.454813,1776081472.806753,599616565515853878,153
4.462505,1776081472.806753,599616565515853878,50
4.470197,1776081472.806753,599616565515853878,-59
4.477889,1776081472.806753,599616565515853878,-34
4.485582,1776081472.806753,599616565515853878,-11
4.493425,1776081473.304684,599616566077542754,-61
4.501117,1776081473.304684,599616566077542754,-128
4.508809,1776081473.304684,599616566077542754,-164
4.516501,1776081473.304684,599616566077542754,-192
4.524194,1776081473.304684,599616566077542754,-224
4.531886,1776081473.304684,599616566077542754,-242
4.539578,1776081473.304684,599616566077542754,-317
4.547271,1776081473.304684,599616566077542754,-512
4.554963,1776081473.304684,599616566077542754,-615
4.562655,1776081473.304684,599616566077542754,-557
4.570348,1776081473.304684,599616566077542754,-642
4.578040,1776081473.304684,599616566077542754,-802
4.585732,1776081473.304684,599616566077542754,-605
4.593425,1776081473.304684,599616566077542754,-205
4.601117,1776081473.304684,599616566077542754,-228
4.608809,1776081473.304684,599616566077542754,-541
4.616501,1776081473.304684,599616566077542754,-516
4.624194,1776081473.304684,599616566077542754,-320
4.631886,1776081473.304684,599616566077542754,-267
4.639578,1776081473.304684,599616566077542754,-118
4.647271,1776081473.304684,599616566077542754,98
4.654963,1776081473.304684,599616566077542754,196
4.662655,1776081473.304684,599616566077542754,370
4.670348,1776081473.304684,599616566077542754,631
4.678040,1776081473.304684,599616566077542754,754
4.685732,1776081473.304684,599616566077542754,857
4.693424,1776081473.304684,599616566077542754,962
4.701117,1776081473.304684,599616566077542754,935
4.708809,1776081473.304684,599616566077542754,910
4.716501,1776081473.304684,599616566077542754,907
4.724194,1776081473.304684,599616566077542754,878
4.731886,1776081473.304684,599616566077542754,880
4.739578,1776081473.304684,599616566077542754,807
4.747271,1776081473.304684,599616566077542754,702
4.754963,1776081473.304684,599616566077542754,670
4.762655,1776081473.304684,599616566077542754,599
4.770348,1776081473.304684,599616566077542754,530
4.778040,1776081473.304684,599616566077542754,544
4.785732,1776081473.304684,599616566077542754,514
4.793424,1776081473.304684,599616566077542754,354
4.801117,1776081473.304684,599616566077542754,144
4.808809,1776081473.304684,599616566077542754,54
4.816501,1776081473.304684,599616566077542754,98
4.824194,1776081473.304684,599616566077542754,123
4.831886,1776081473.304684,599616566077542754,132
4.839578,1776081473.304684,599616566077542754,118
4.847271,1776081473.304684,599616566077542754,45
4.854963,1776081473.304684,599616566077542754,-70
4.862655,1776081473.304684,599616566077542754,-4
4.870348,1776081473.304684,599616566077542754,114
4.878040,1776081473.304684,599616566077542754,-251
4.885732,1776081473.304684,599616566077542754,-473
4.893425,1776081473.304684,599616566077542754,-123
4.901117,1776081473.304684,599616566077542754,-82
4.908809,1776081473.304684,599616566077542754,-283
4.916501,1776081473.304684,599616566077542754,-185
4.924194,1776081473.304684,599616566077542754,-96
4.931886,1776081473.304684,599616566077542754,-173
4.939578,1776081473.304684,599616566077542754,-171
4.947271,1776081473.304684,599616566077542754,-134
4.954963,1776081473.304684,599616566077542754,-185
4.962655,1776081473.304684,599616566077542754,-192
4.970348,1776081473.304684,599616566077542754,-155
4.978040,1776081473.304684,599616566077542754,-180
4.985732,1776081473.304684,599616566077542754,-194
4.993425,1776081473.304684,599616566077542754,-146
5.001117,1776081473.304684,599616566077542754,-41
5.008809,1776081473.304684,599616566077542754,96
5.016501,1776081473.304684,599616566077542754,242
5.024194,1776081473.304684,599616566077542754,285
5.031886,1776081473.304684,599616566077542754,20
5.039578,1776081473.304684,599616566077542754,-205
5.047271,1776081473.304684,599616566077542754,-18
5.055083,1776081473.840803,599616566639201112,244
5.062775,1776081473.840803,599616566639201112,500
5.070467,1776081473.840803,599616566639201112,807
5.078160,1776081473.840803,599616566639201112,843
5.085852,1776081473.840803,599616566639201112,697
5.093544,1776081473.840803,599616566639201112,624
5.101237,1776081473.840803,599616566639201112,537
5.108929,1776081473.840803,599616566639201112,420
5.116621,1776081473.840803,599616566639201112,359
5.124314,1776081473.840803,599616566639201112,365
5.132006,1776081473.840803,599616566639201112,423
5.139698,1776081473.840803,599616566639201112,423
5.147391,1776081473.840803,599616566639201112,274
5.155083,1776081473.840803,599616566639201112,114
5.162775,1776081473.840803,599616566639201112,109
5.170467,1776081473.840803,599616566639201112,141
5.178160,1776081473.840803,599616566639201112,43
5.185852,1776081473.840803,599616566639201112,-36
5.193544,1776081473.840803,599616566639201112,18
5.201237,1776081473.840803,599616566639201112,52
5.208929,1776081473.840803,599616566639201112,9
5.216621,1776081473.840803,599616566639201112,-16
5.224314,1776081473.840803,599616566639201112,98
5.232006,1776081473.840803,599616566639201112,256
5.239698,1776081473.840803,599616566639201112,89
5.247391,1776081473.840803,599616566639201112,-262
5.255083,1776081473.840803,599616566639201112,-381
5.262775,1776081473.840803,599616566639201112,-402
5.270468,1776081473.840803,599616566639201112,-491
5.278160,1776081473.840803,599616566639201112,-477
5.285852,1776081473.840803,599616566639201112,-368
5.293544,1776081473.840803,599616566639201112,-324
5.301237,1776081473.840803,599616566639201112,-235
5.308929,1776081473.840803,599616566639201112,-16
5.316621,1776081473.840803,599616566639201112,-27
5.324314,1776081473.840803,599616566639201112,-388
5.332006,1776081473.840803,599616566639201112,-681
5.339698,1776081473.840803,599616566639201112,-718
5.347391,1776081473.840803,599616566639201112,-772
5.355083,1776081473.840803,599616566639201112,-1010
5.362775,1776081473.840803,599616566639201112,-1356
5.370468,1776081473.840803,599616566639201112,-1824
5.378160,1776081473.840803,599616566639201112,-2291
5.385852,1776081473.840803,599616566639201112,-2433
5.393544,1776081473.840803,599616566639201112,-2611
5.401237,1776081473.840803,599616566639201112,-3283
5.408929,1776081473.840803,599616566639201112,-3507
5.416621,1776081473.840803,599616566639201112,-2744
5.424314,1776081473.840803,599616566639201112,-2142
5.432006,1776081473.840803,599616566639201112,-2147
5.439698,1776081473.840803,599616566639201112,-2062
5.447391,1776081473.840803,599616566639201112,-1898
5.455083,1776081473.840803,599616566639201112,-1936
5.462775,1776081473.840803,599616566639201112,-1868
5.470467,1776081473.840803,599616566639201112,-1644
5.478160,1776081473.840803,599616566639201112,-1522
5.485852,1776081473.840803,599616566639201112,-1426
5.493544,1776081473.840803,599616566639201112,-1285
5.501237,1776081473.840803,599616566639201112,-1184
5.508929,1776081473.840803,599616566639201112,-1127
5.516621,1776081473.840803,599616566639201112,-1058
5.524314,1776081473.840803,599616566639201112,-971
5.532006,1776081473.840803,599616566639201112,-935
5.539698,1776081473.840803,599616566639201112,-978
5.547391,1776081473.840803,599616566639201112,-985
5.555083,1776081473.840803,599616566639201112,-919
5.562775,1776081473.840803,599616566639201112,-960
5.570467,1776081473.840803,599616566639201112,-1109
5.578160,1776081473.840803,599616566639201112,-1136
5.585852,1776081473.840803,599616566639201112,-1074
5.593544,1776081473.840803,599616566639201112,-1095
5.601237,1776081473.840803,599616566639201112,-1147
5.608929,1776081473.840803,599616566639201112,-1154
5.616746,1776081474.427048,599616567200864558,-1141
5.624439,1776081474.427048,599616567200864558,-1143
5.632131,1776081474.427048,599616567200864558,-1179
5.639823,1776081474.427048,599616567200864558,-1159
5.647516,1776081474.427048,599616567200864558,-1029
5.655208,1776081474.427048,599616567200864558,-921
5.662900,1776081474.427048,599616567200864558,-855
5.670592,1776081474.427048,599616567200864558,-811
5.678285,1776081474.427048,599616567200864558,-868
5.685977,1776081474.427048,599616567200864558,-949
5.693669,1776081474.427048,599616567200864558,-912
5.701362,1776081474.427048,599616567200864558,-793
5.709054,1776081474.427048,599616567200864558,-704
5.716746,1776081474.427048,599616567200864558,-674
5.724439,1776081474.427048,599616567200864558,-619
5.732131,1776081474.427048,599616567200864558,-557
5.739823,1776081474.427048,599616567200864558,-583
5.747516,1776081474.427048,599616567200864558,-660
5.755208,1776081474.427048,599616567200864558,-708
5.762900,1776081474.427048,599616567200864558,-670
5.770592,1776081474.427048,599616567200864558,-532
5.778285,1776081474.427048,599616567200864558,-395
5.785977,1776081474.427048,599616567200864558,-416
5.793669,1776081474.427048,599616567200864558,-487
5.801362,1776081474.427048,599616567200864558,-407
5.809054,1776081474.427048,599616567200864558,-343
5.816746,1776081474.427048,599616567200864558,-246
5.824439,1776081474.427048,599616567200864558,208
5.832131,1776081474.427048,599616567200864558,649
5.839823,1776081474.427048,599616567200864558,756
5.847515,1776081474.427048,599616567200864558,1211
5.855208,1776081474.427048,599616567200864558,1946
5.862900,1776081474.427048,599616567200864558,1950
5.870592,1776081474.427048,599616567200864558,1673
5.878285,1776081474.427048,599616567200864558,1932
5.885977,1776081474.427048,599616567200864558,2044
5.893669,1776081474.427048,599616567200864558,1776
5.901362,1776081474.427048,599616567200864558,1744
5.909054,1776081474.427048,599616567200864558,1797
5.916746,1776081474.427048,599616567200864558,1639
5.924439,1776081474.427048,599616567200864558,1449
5.932131,1776081474.427048,599616567200864558,1269
5.939823,1776081474.427048,599616567200864558,1125
5.947515,1776081474.427048,599616567200864558,1118
5.955208,1776081474.427048,599616567200864558,1166
5.962900,1776081474.427048,599616567200864558,1221
5.970592,1776081474.427048,599616567200864558,1280
5.978285,1776081474.427048,599616567200864558,1285
5.985977,1776081474.427048,599616567200864558,1285
5.993669,1776081474.427048,599616567200864558,1296
6.001362,1776081474.427048,599616567200864558,1248
6.009054,1776081474.427048,599616567200864558,1198
6.016746,1776081474.427048,599616567200864558,1205
6.024439,1776081474.427048,599616567200864558,1154
6.032131,1776081474.427048,599616567200864558,962
6.039823,1776081474.427048,599616567200864558,814
6.047516,1776081474.427048,599616567200864558,875
6.055208,1776081474.427048,599616567200864558,1081
6.062900,1776081474.427048,599616567200864558,1317
6.070592,1776081474.427048,599616567200864558,1191
6.078285,1776081474.427048,599616567200864558,857
6.085977,1776081474.427048,599616567200864558,1175
6.093669,1776081474.427048,599616567200864558,1502
6.101362,1776081474.427048,599616567200864558,1001
6.109054,1776081474.427048,599616567200864558,587
6.116746,1776081474.427048,599616567200864558,690
6.124439,1776081474.427048,599616567200864558,718
6.132131,1776081474.427048,599616567200864558,624
6.139823,1776081474.427048,599616567200864558,599
6.147516,1776081474.427048,599616567200864558,514
6.155208,1776081474.427048,599616567200864558,331
6.162900,1776081474.427048,599616567200864558,-38
6.170592,1776081474.427048,599616567200864558,-525
6.178461,1776081474.967811,599616567762578864,-448
6.186153,1776081474.967811,599616567762578864,54
6.193845,1776081474.967811,599616567762578864,-32
6.201537,1776081474.967811,599616567762578864,-503
6.209230,1776081474.967811,599616567762578864,-569
6.216922,1776081474.967811,599616567762578864,-551
6.224614,1776081474.967811,599616567762578864,-688
6.232307,1776081474.967811,599616567762578864,-594
6.239999,1776081474.967811,599616567762578864,-418
6.247691,1776081474.967811,599616567762578864,-384
6.255384,1776081474.967811,599616567762578864,-338
6.263076,1776081474.967811,599616567762578864,-370
6.270768,1776081474.967811,599616567762578864,-530
6.278461,1776081474.967811,599616567762578864,-519
6.286153,1776081474.967811,599616567762578864,-242
6.293845,1776081474.967811,599616567762578864,-153
6.301538,1776081474.967811,599616567762578864,-535
6.309230,1776081474.967811,599616567762578864,-697
6.316922,1776081474.967811,599616567762578864,-523
6.324614,1776081474.967811,599616567762578864,-688
6.332307,1776081474.967811,599616567762578864,-914
6.339999,1776081474.967811,599616567762578864,-880
6.347691,1776081474.967811,599616567762578864,-887
6.355384,1776081474.967811,599616567762578864,-905
6.363076,1776081474.967811,599616567762578864,-848
6.370768,1776081474.967811,599616567762578864,-841
6.378461,1776081474.967811,599616567762578864,-871
6.386153,1776081474.967811,599616567762578864,-923
6.393845,1776081474.967811,599616567762578864,-1033
6.401538,1776081474.967811,599616567762578864,-1109
6.409230,1776081474.967811,599616567762578864,-1131
6.416922,1776081474.967811,599616567762578864,-1127
6.424614,1776081474.967811,599616567762578864,-1093
6.432307,1776081474.967811,599616567762578864,-1067
6.439999,1776081474.967811,599616567762578864,-1097
6.447691,1776081474.967811,599616567762578864,-1182
6.455384,1776081474.967811,599616567762578864,-1292
6.463076,1776081474.967811,599616567762578864,-1365
6.470768,1776081474.967811,599616567762578864,-1356
6.478461,1776081474.967811,599616567762578864,-1308
6.486153,1776081474.967811,599616567762578864,-1285
6.493845,1776081474.967811,599616567762578864,-1305
6.501537,1776081474.967811,599616567762578864,-1340
6.509230,1776081474.967811,599616567762578864,-1344
6.516922,1776081474.967811,599616567762578864,-1340
6.524614,1776081474.967811,599616567762578864,-1326
6.532307,1776081474.967811,599616567762578864,-1292
6.539999,1776081474.967811,599616567762578864,-1266
6.547691,1776081474.967811,599616567762578864,-1228
6.555384,1776081474.967811,599616567762578864,-1056
6.563076,1776081474.967811,599616567762578864,-784
6.570768,1776081474.967811,599616567762578864,-656
6.578461,1776081474.967811,599616567762578864,-676
6.586153,1776081474.967811,599616567762578864,-635
6.593845,1776081474.967811,599616567762578864,-569
6.601537,1776081474.967811,599616567762578864,-587
6.609230,1776081474.967811,599616567762578864,-631
6.616922,1776081474.967811,599616567762578864,-651
6.624614,1776081474.967811,599616567762578864,-649
6.632307,1776081474.967811,599616567762578864,-640
6.639999,1776081474.967811,599616567762578864,-638
6.647691,1776081474.967811,599616567762578864,-608
6.655384,1776081474.967811,599616567762578864,-553
6.663076,1776081474.967811,599616567762578864,-507
6.670768,1776081474.967811,599616567762578864,-461
6.678461,1776081474.967811,599616567762578864,-407
6.686153,1776081474.967811,599616567762578864,-368
6.693845,1776081474.967811,599616567762578864,-336
6.701537,1776081474.967811,599616567762578864,-336
6.709230,1776081474.967811,599616567762578864,-381
6.716922,1776081474.967811,599616567762578864,-354
6.724614,1776081474.967811,599616567762578864,-203
6.732307,1776081474.967811,599616567762578864,-89
6.740119,1776081475.554475,599616568324237224,-109
6.747811,1776081475.554475,599616568324237224,-155
6.755504,1776081475.554475,599616568324237224,-230
6.763196,1776081475.554475,599616568324237224,-338
6.770888,1776081475.554475,599616568324237224,-112
6.778580,1776081475.554475,599616568324237224,0
6.786273,1776081475.554475,599616568324237224,-429
6.793965,1776081475.554475,599616568324237224,-461
6.801657,1776081475.554475,599616568324237224,-176
6.809350,1776081475.554475,599616568324237224,-249
6.817042,1776081475.554475,599616568324237224,-322
6.824734,1776081475.554475,599616568324237224,-283
6.832427,1776081475.554475,599616568324237224,-379
6.840119,1776081475.554475,599616568324237224,-475
6.847811,1776081475.554475,599616568324237224,-450
6.855504,1776081475.554475,599616568324237224,-418
6.863196,1776081475.554475,599616568324237224,-388
6.870888,1776081475.554475,599616568324237224,-349
6.878580,1776081475.554475,599616568324237224,-343
6.886273,1776081475.554475,599616568324237224,-361
6.893965,1776081475.554475,599616568324237224,-393
6.901657,1776081475.554475,599616568324237224,-425
6.909350,1776081475.554475,599616568324237224,-466
6.917042,1776081475.554475,599616568324237224,-503
6.924734,1776081475.554475,599616568324237224,-468
6.932427,1776081475.554475,599616568324237224,-349
6.940119,1776081475.554475,599616568324237224,-244
6.947811,1776081475.554475,599616568324237224,-178
6.955504,1776081475.554475,599616568324237224,-128
6.963196,1776081475.554475,599616568324237224,-148
6.970888,1776081475.554475,599616568324237224,-176
6.978580,1776081475.554475,599616568324237224,-134
6.986273,1776081475.554475,599616568324237224,-109
6.993965,1776081475.554475,599616568324237224,-91
7.001657,1776081475.554475,599616568324237224,-9
7.009350,1776081475.554475,599616568324237224,68
7.017042,1776081475.554475,599616568324237224,91
7.024734,1776081475.554475,599616568324237224,100
7.032427,1776081475.554475,599616568324237224,82
7.040119,1776081475.554475,599616568324237224,36
7.047811,1776081475.554475,599616568324237224,13
7.055504,1776081475.554475,599616568324237224,11
7.063196,1776081475.554475,599616568324237224,20
7.070888,1776081475.554475,599616568324237224,29
7.078580,1776081475.554475,599616568324237224,27
7.086273,1776081475.554475,599616568324237224,48
7.093965,1776081475.554475,599616568324237224,100
7.101657,1776081475.554475,599616568324237224,128
7.109350,1776081475.554475,599616568324237224,112
7.117042,1776081475.554475,599616568324237224,91
7.124734,1776081475.554475,599616568324237224,100
7.132427,1776081475.554475,599616568324237224,118
7.140119,1776081475.554475,599616568324237224,141
7.147811,1776081475.554475,599616568324237224,132
7.155504,1776081475.554475,599616568324237224,-11
7.163196,1776081475.554475,599616568324237224,-226
7.170888,1776081475.554475,599616568324237224,-311
7.178581,1776081475.554475,599616568324237224,-278
7.186273,1776081475.554475,599616568324237224,-278
7.193965,1776081475.554475,599616568324237224,-288
7.201657,1776081475.554475,599616568324237224,-256
7.209350,1776081475.554475,599616568324237224,-262
7.217042,1776081475.554475,599616568324237224,-343
7.224734,1776081475.554475,599616568324237224,-244
7.232427,1776081475.554475,599616568324237224,-68
7.240119,1776081475.554475,599616568324237224,-299
7.247811,1776081475.554475,599616568324237224,-459
7.255504,1776081475.554475,599616568324237224,-173
7.263196,1776081475.554475,599616568324237224,-100
7.270888,1776081475.554475,599616568324237224,-256
7.278580,1776081475.554475,599616568324237224,-265
7.286273,1776081475.554475,599616568324237224,-253
7.293965,1776081475.554475,599616568324237224,-290
7.301808,1776081476.136925,599616568885926100,-274
7.309500,1776081476.136925,599616568885926100,-251
7.317192,1776081476.136925,599616568885926100,-267
7.324885,1776081476.136925,599616568885926100,-224
7.332577,1776081476.136925,599616568885926100,-13
7.340269,1776081476.136925,599616568885926100,112
7.347962,1776081476.136925,599616568885926100,-77
7.355654,1776081476.136925,599616568885926100,-230
7.363346,1776081476.136925,599616568885926100,-224
7.371039,1776081476.136925,599616568885926100,-274
7.378731,1776081476.136925,599616568885926100,-345
7.386423,1776081476.136925,599616568885926100,-340
7.394116,1776081476.136925,599616568885926100,-324
7.401808,1776081476.136925,599616568885926100,-395
7.409500,1776081476.136925,599616568885926100,-484
7.417192,1776081476.136925,599616568885926100,-477
7.424885,1776081476.136925,599616568885926100,-439
7.432577,1776081476.136925,599616568885926100,-439
7.440269,1776081476.136925,599616568885926100,-436
7.447962,1776081476.136925,599616568885926100,-423
7.455654,1776081476.136925,599616568885926100,-429
7.463346,1776081476.136925,599616568885926100,-432
7.471039,1776081476.136925,599616568885926100,-393
7.478731,1776081476.136925,599616568885926100,-349
7.486423,1776081476.136925,599616568885926100,-343
7.494116,1776081476.136925,599616568885926100,-368
7.501808,1776081476.136925,599616568885926100,-372
7.509500,1776081476.136925,599616568885926100,-352
7.517192,1776081476.136925,599616568885926100,-343
7.524885,1776081476.136925,599616568885926100,-352
7.532577,1776081476.136925,599616568885926100,-361
7.540269,1776081476.136925,599616568885926100,-363
7.547962,1776081476.136925,599616568885926100,-354
7.555654,1776081476.136925,599616568885926100,-327
7.563346,1776081476.136925,599616568885926100,-304
7.571039,1776081476.136925,599616568885926100,-294
7.578731,1776081476.136925,599616568885926100,-281
7.586423,1776081476.136925,599616568885926100,-269
7.594115,1776081476.136925,599616568885926100,-269
7.601808,1776081476.136925,599616568885926100,-260
7.609500,1776081476.136925,599616568885926100,-251
7.617193,1776081476.136925,599616568885926100,-237
7.624885,1776081476.136925,599616568885926100,-196
7.632577,1776081476.136925,599616568885926100,-157
7.640269,1776081476.136925,599616568885926100,-180
7.647962,1776081476.136925,599616568885926100,-260
7.655654,1776081476.136925,599616568885926100,-304
7.663346,1776081476.136925,599616568885926100,-269
7.671039,1776081476.136925,599616568885926100,-249
7.678731,1776081476.136925,599616568885926100,-265
7.686423,1776081476.136925,599616568885926100,-256
7.694116,1776081476.136925,599616568885926100,-235
7.701808,1776081476.136925,599616568885926100,-237
7.709500,1776081476.136925,599616568885926100,-315
7.717192,1776081476.136925,599616568885926100,-246
7.724885,1776081476.136925,599616568885926100,9
7.732577,1776081476.136925,599616568885926100,-164
7.740269,1776081476.136925,599616568885926100,-429
7.747962,1776081476.136925,599616568885926100,-194
7.755654,1776081476.136925,599616568885926100,-89
7.763346,1776081476.136925,599616568885926100,-240
7.771039,1776081476.136925,599616568885926100,-201
7.778731,1776081476.136925,599616568885926100,-139
7.786423,1776081476.136925,599616568885926100,-176
7.794116,1776081476.136925,599616568885926100,-157
7.801808,1776081476.136925,599616568885926100,-109
7.809500,1776081476.136925,599616568885926100,-105
7.817192,1776081476.136925,599616568885926100,-105
7.824885,1776081476.136925,599616568885926100,-89
7.832577,1776081476.136925,599616568885926100,-84
7.840269,1776081476.136925,599616568885926100,-77
7.847962,1776081476.136925,599616568885926100,-66
7.855654,1776081476.136925,599616568885926100,-66
7.863497,1776081476.677242,599616569447614976,-77
7.871189,1776081476.677242,599616569447614976,-96
7.878881,1776081476.677242,599616569447614976,-80
7.886574,1776081476.677242,599616569447614976,-34
7.894266,1776081476.677242,599616569447614976,-82
7.901958,1776081476.677242,599616569447614976,-182
7.909651,1776081476.677242,599616569447614976,-187
7.917343,1776081476.677242,599616569447614976,-162
7.925035,1776081476.677242,599616569447614976,-182
7.932728,1776081476.677242,599616569447614976,-192
7.940420,1776081476.677242,599616569447614976,-185
7.948112,1776081476.677242,599616569447614976,-187
7.955804,1776081476.677242,599616569447614976,-189
7.963497,1776081476.677242,599616569447614976,-180
7.971189,1776081476.677242,599616569447614976,-164
7.978881,1776081476.677242,599616569447614976,-155
7.986574,1776081476.677242,599616569447614976,-146
7.994266,1776081476.677242,599616569447614976,-137
8.001958,1776081476.677242,599616569447614976,-130
8.009651,1776081476.677242,599616569447614976,-128
8.017343,1776081476.677242,599616569447614976,-130
8.025035,1776081476.677242,599616569447614976,-130
8.032727,1776081476.677242,599616569447614976,-134
8.040420,1776081476.677242,599616569447614976,-132
8.048112,1776081476.677242,599616569447614976,-123
8.055804,1776081476.677242,599616569447614976,-125
8.063497,1776081476.677242,599616569447614976,-125
8.071189,1776081476.677242,599616569447614976,-118
8.078881,1776081476.677242,599616569447614976,-118
8.086574,1776081476.677242,599616569447614976,-118
8.094266,1776081476.677242,599616569447614976,-116
8.101958,1776081476.677242,599616569447614976,-112
8.109651,1776081476.677242,599616569447614976,-93
8.117343,1776081476.677242,599616569447614976,-43
8.125035,1776081476.677242,599616569447614976,11
8.132728,1776081476.677242,599616569447614976,-6
8.140420,1776081476.677242,599616569447614976,-93
8.148112,1776081476.677242,599616569447614976,-155
8.155804,1776081476.677242,599616569447614976,-148
8.163497,1776081476.677242,599616569447614976,-128
8.171189,1776081476.677242,599616569447614976,-132
8.178881,1776081476.677242,599616569447614976,-137
8.186574,1776081476.677242,599616569447614976,-130
8.194266,1776081476.677242,599616569447614976,-157
8.201958,1776081476.677242,599616569447614976,-198
8.209651,1776081476.677242,599616569447614976,-6
8.217343,1776081476.677242,599616569447614976,75
8.225035,1776081476.677242,599616569447614976,-267
8.232728,1776081476.677242,599616569447614976,-242
8.240420,1776081476.677242,599616569447614976,27
8.248112,1776081476.677242,599616569447614976,-70
8.255804,1776081476.677242,599616569447614976,-141
8.263497,1776081476.677242,599616569447614976,-45
8.271189,1776081476.677242,599616569447614976,-52
8.278881,1776081476.677242,599616569447614976,-86
8.286574,1776081476.677242,599616569447614976,-57
8.294266,1776081476.677242,599616569447614976,-43
8.301958,1776081476.677242,599616569447614976,-50
8.309651,1776081476.677242,599616569447614976,-41
8.317343,1776081476.677242,599616569447614976,-32
8.325035,1776081476.677242,599616569447614976,-29
8.332728,1776081476.677242,599616569447614976,-22
8.340420,1776081476.677242,599616569447614976,-18
8.348112,1776081476.677242,599616569447614976,-20
8.355804,1776081476.677242,599616569447614976,-48
8.363497,1776081476.677242,599616569447614976,-68
8.371189,1776081476.677242,599616569447614976,-25
8.378881,1776081476.677242,599616569447614976,-13
8.386574,1776081476.677242,599616569447614976,-105
8.394266,1776081476.677242,599616569447614976,-162
8.401958,1776081476.677242,599616569447614976,-139
8.409651,1776081476.677242,599616569447614976,-132
8.417343,1776081476.677242,599616569447614976,-146
8.425186,1776081477.217450,599616570009303852,-134
8.432878,1776081477.217450,599616570009303852,-130
8.440570,1776081477.217450,599616570009303852,-153
8.448262,1776081477.217450,599616570009303852,-162
8.455955,1776081477.217450,599616570009303852,-144
8.463647,1776081477.217450,599616570009303852,-132
8.471339,1776081477.217450,599616570009303852,-130
8.479032,1776081477.217450,599616570009303852,-116
8.486724,1776081477.217450,599616570009303852,-105
8.494416,1776081477.217450,599616570009303852,-116
8.502109,1776081477.217450,599616570009303852,-128
8.509801,1776081477.217450,599616570009303852,-137
8.517493,1776081477.217450,599616570009303852,-160
8.525186,1776081477.217450,599616570009303852,-166
8.532878,1776081477.217450,599616570009303852,-155
8.540570,1776081477.217450,599616570009303852,-157
8.548262,1776081477.217450,599616570009303852,-162
8.555955,1776081477.217450,599616570009303852,-155
8.563647,1776081477.217450,599616570009303852,-148
8.571339,1776081477.217450,599616570009303852,-155
8.579032,1776081477.217450,599616570009303852,-164
8.586724,1776081477.217450,599616570009303852,-164
8.594416,1776081477.217450,599616570009303852,-162
8.602109,1776081477.217450,599616570009303852,-141
8.609801,1776081477.217450,599616570009303852,-82
8.617493,1776081477.217450,599616570009303852,-20
8.625185,1776081477.217450,599616570009303852,-20
8.632878,1776081477.217450,599616570009303852,-89
8.640570,1776081477.217450,599616570009303852,-157
8.648263,1776081477.217450,599616570009303852,-166
8.655955,1776081477.217450,599616570009303852,-150
8.663647,1776081477.217450,599616570009303852,-153
8.671339,1776081477.217450,599616570009303852,-157
8.679032,1776081477.217450,599616570009303852,-148
8.686724,1776081477.217450,599616570009303852,-148
8.694416,1776081477.217450,599616570009303852,-205
8.702109,1776081477.217450,599616570009303852,-36
8.709801,1776081477.217450,599616570009303852,121
8.717493,1776081477.217450,599616570009303852,-203
8.725186,1776081477.217450,599616570009303852,-253
8.732878,1776081477.217450,599616570009303852,27
8.740570,1776081477.217450,599616570009303852,-43
8.748262,1776081477.217450,599616570009303852,-139
8.755955,1776081477.217450,599616570009303852,-41
8.763647,1776081477.217450,599616570009303852,-22
8.771339,1776081477.217450,599616570009303852,-64
8.779032,1776081477.217450,599616570009303852,-25
8.786724,1776081477.217450,599616570009303852,11
8.794416,1776081477.217450,599616570009303852,0
8.802109,1776081477.217450,599616570009303852,4
8.809801,1776081477.217450,599616570009303852,16
8.817493,1776081477.217450,599616570009303852,0
8.825186,1776081477.217450,599616570009303852,-25
8.832878,1776081477.217450,599616570009303852,-41
8.840570,1776081477.217450,599616570009303852,-57
8.848262,1776081477.217450,599616570009303852,-77
8.855955,1776081477.217450,599616570009303852,-80
8.863647,1776081477.217450,599616570009303852,-27
8.871339,1776081477.217450,599616570009303852,6
8.879032,1776081477.217450,599616570009303852,-34
8.886724,1776081477.217450,599616570009303852,-18
8.894416,1776081477.217450,599616570009303852,66
8.902109,1776081477.217450,599616570009303852,102
8.909801,1776081477.217450,599616570009303852,116
8.917493,1776081477.217450,599616570009303852,132
8.925186,1776081477.217450,599616570009303852,121
8.932878,1776081477.217450,599616570009303852,102
8.940570,1776081477.217450,599616570009303852,116
8.948262,1776081477.217450,599616570009303852,125
8.955955,1776081477.217450,599616570009303852,112
8.963647,1776081477.217450,599616570009303852,100
8.971339,1776081477.217450,599616570009303852,89
8.979032,1776081477.217450,599616570009303852,66
8.986875,1776081477.801689,599616570570992728,36
8.994567,1776081477.801689,599616570570992728,20
9.002259,1776081477.801689,599616570570992728,25
9.009951,1776081477.801689,599616570570992728,29
9.017644,1776081477.801689,599616570570992728,16
9.025336,1776081477.801689,599616570570992728,11
9.033028,1776081477.801689,599616570570992728,16
9.040721,1776081477.801689,599616570570992728,16
9.048413,1776081477.801689,599616570570992728,13
9.056105,1776081477.801689,599616570570992728,6
9.063798,1776081477.801689,599616570570992728,-6
9.071490,1776081477.801689,599616570570992728,-13
9.079182,1776081477.801689,599616570570992728,-13
9.086875,1776081477.801689,599616570570992728,-45
9.094567,1776081477.801689,599616570570992728,-98
9.102259,1776081477.801689,599616570570992728,-121
9.109951,1776081477.801689,599616570570992728,-89
9.117644,1776081477.801689,599616570570992728,-41
9.125336,1776081477.801689,599616570570992728,-66
9.133028,1776081477.801689,599616570570992728,-173
9.140721,1776081477.801689,599616570570992728,-253
9.148413,1776081477.801689,599616570570992728,-249
9.156105,1776081477.801689,599616570570992728,-237
9.163798,1776081477.801689,599616570570992728,-278
9.171490,1776081477.801689,599616570570992728,-356
9.179182,1776081477.801689,599616570570992728,-395
9.186875,1776081477.801689,599616570570992728,-343
9.194567,1776081477.801689,599616570570992728,-315
9.202259,1776081477.801689,599616570570992728,-20
9.209952,1776081477.801689,599616570570992728,201
9.217644,1776081477.801689,599616570570992728,-304
9.225336,1776081477.801689,599616570570992728,-475
9.233028,1776081477.801689,599616570570992728,-114
9.240721,1776081477.801689,599616570570992728,-148
9.248413,1776081477.801689,599616570570992728,-235
9.256105,1776081477.801689,599616570570992728,-59
9.263798,1776081477.801689,599616570570992728,18
9.271490,1776081477.801689,599616570570992728,-41
9.279182,1776081477.801689,599616570570992728,-13
9.286875,1776081477.801689,599616570570992728,41
9.294567,1776081477.801689,599616570570992728,6
9.302259,1776081477.801689,599616570570992728,13
9.309951,1776081477.801689,599616570570992728,84
9.317644,1776081477.801689,599616570570992728,86
9.325336,1776081477.801689,599616570570992728,32
9.333028,1776081477.801689,599616570570992728,-6
9.340721,1776081477.801689,599616570570992728,-16
9.348413,1776081477.801689,599616570570992728,-45
9.356105,1776081477.801689,599616570570992728,-105
9.363798,1776081477.801689,599616570570992728,-98
9.371490,1776081477.801689,599616570570992728,-73
9.379182,1776081477.801689,599616570570992728,-139
9.386875,1776081477.801689,599616570570992728,-139
9.394567,1776081477.801689,599616570570992728,4
9.402259,1776081477.801689,599616570570992728,132
9.409951,1776081477.801689,599616570570992728,228
9.417644,1776081477.801689,599616570570992728,420
9.425336,1776081477.801689,599616570570992728,756
9.433028,1776081477.801689,599616570570992728,1038
9.440721,1776081477.801689,599616570570992728,1063
9.448413,1776081477.801689,599616570570992728,1081
9.456105,1776081477.801689,599616570570992728,1271
9.463798,1776081477.801689,599616570570992728,1360
9.471490,1776081477.801689,599616570570992728,1346
9.479182,1776081477.801689,599616570570992728,1417
9.486875,1776081477.801689,599616570570992728,1406
9.494567,1776081477.801689,599616570570992728,1248
9.502259,1776081477.801689,599616570570992728,1157
9.509951,1776081477.801689,599616570570992728,1129
9.517644,1776081477.801689,599616570570992728,1090
9.525336,1776081477.801689,599616570570992728,1042
9.533028,1776081477.801689,599616570570992728,944
9.540721,1776081477.801689,599616570570992728,859
9.548563,1776081478.341659,599616571132681604,983
9.556256,1776081478.341659,599616571132681604,1296
9.563948,1776081478.341659,599616571132681604,1559
9.571640,1776081478.341659,599616571132681604,1726
9.579333,1776081478.341659,599616571132681604,1968
9.587025,1776081478.341659,599616571132681604,2343
9.594717,1776081478.341659,599616571132681604,2769
9.602409,1776081478.341659,599616571132681604,3020
9.610102,1776081478.341659,599616571132681604,2981
9.617794,1776081478.341659,599616571132681604,2739
9.625486,1776081478.341659,599616571132681604,2318
9.633179,1776081478.341659,599616571132681604,1941
9.640871,1776081478.341659,599616571132681604,1820
9.648563,1776081478.341659,599616571132681604,1765
9.656256,1776081478.341659,599616571132681604,1790
9.663948,1776081478.341659,599616571132681604,1829
9.671640,1776081478.341659,599616571132681604,1522
9.679333,1776081478.341659,599616571132681604,1218
9.687025,1776081478.341659,599616571132681604,1312
9.694717,1776081478.341659,599616571132681604,1127
9.702410,1776081478.341659,599616571132681604,649
9.710102,1776081478.341659,599616571132681604,1269
9.717794,1776081478.341659,599616571132681604,1685
9.725486,1776081478.341659,599616571132681604,473
9.733179,1776081478.341659,599616571132681604,340
9.740871,1776081478.341659,599616571132681604,1239
9.748563,1776081478.341659,599616571132681604,1035
9.756256,1776081478.341659,599616571132681604,779
9.763948,1776081478.341659,599616571132681604,1063
9.771640,1776081478.341659,599616571132681604,1045
9.779333,1776081478.341659,599616571132681604,830
9.787025,1776081478.341659,599616571132681604,804
9.794717,1776081478.341659,599616571132681604,772
9.802410,1776081478.341659,599616571132681604,608
9.810102,1776081478.341659,599616571132681604,416
9.817794,1776081478.341659,599616571132681604,285
9.825486,1776081478.341659,599616571132681604,267
9.833179,1776081478.341659,599616571132681604,306
9.840871,1776081478.341659,599616571132681604,313
9.848563,1776081478.341659,599616571132681604,253
9.856256,1776081478.341659,599616571132681604,100
9.863948,1776081478.341659,599616571132681604,-16
9.871640,1776081478.341659,599616571132681604,267
9.879333,1776081478.341659,599616571132681604,715
9.887025,1776081478.341659,599616571132681604,541
9.894717,1776081478.341659,599616571132681604,205
9.902409,1776081478.341659,599616571132681604,365
9.910102,1776081478.341659,599616571132681604,420
9.917794,1776081478.341659,599616571132681604,228
9.925486,1776081478.341659,599616571132681604,201
9.933179,1776081478.341659,599616571132681604,327
9.940871,1776081478.341659,599616571132681604,585
9.948563,1776081478.341659,599616571132681604,1015
9.956256,1776081478.341659,599616571132681604,1397
9.963948,1776081478.341659,599616571132681604,1527
9.971640,1776081478.341659,599616571132681604,1539
9.979333,1776081478.341659,599616571132681604,1566
9.987025,1776081478.341659,599616571132681604,1534
9.994717,1776081478.341659,599616571132681604,1413
10.002409,1776081478.341659,599616571132681604,1276
10.010102,1776081478.341659,599616571132681604,1150
10.017794,1776081478.341659,599616571132681604,1015
10.025486,1776081478.341659,599616571132681604,891
10.033179,1776081478.341659,599616571132681604,807
10.040871,1776081478.341659,599616571132681604,768
10.048563,1776081478.341659,599616571132681604,743
10.056256,1776081478.341659,599616571132681604,722
10.063948,1776081478.341659,599616571132681604,715
10.071640,1776081478.341659,599616571132681604,702
10.079333,1776081478.341659,599616571132681604,692
10.087025,1776081478.341659,599616571132681604,688
10.094717,1776081478.341659,599616571132681604,672
10.102409,1776081478.341659,599616571132681604,667
10.110222,1776081478.972257,599616571694339964,692
10.117914,1776081478.972257,599616571694339964,711
10.125606,1776081478.972257,599616571694339964,697
10.133299,1776081478.972257,599616571694339964,644
10.140991,1776081478.972257,599616571694339964,585
10.148683,1776081478.972257,599616571694339964,535
10.156376,1776081478.972257,599616571694339964,505
10.164068,1776081478.972257,599616571694339964,484
10.171760,1776081478.972257,599616571694339964,445
10.179453,1776081478.972257,599616571694339964,411
10.187145,1776081478.972257,599616571694339964,420
10.194837,1776081478.972257,599616571694339964,573
10.202529,1776081478.972257,599616571694339964,738
10.210222,1776081478.972257,599616571694339964,432
10.217914,1776081478.972257,599616571694339964,134
10.225606,1776081478.972257,599616571694339964,468
10.233299,1776081478.972257,599616571694339964,640
10.240991,1776081478.972257,599616571694339964,425
10.248683,1776081478.972257,599616571694339964,436
10.256376,1776081478.972257,599616571694339964,516
10.264068,1776081478.972257,599616571694339964,439
10.271760,1776081478.972257,599616571694339964,397
10.279452,1776081478.972257,599616571694339964,423
10.287145,1776081478.972257,599616571694339964,402
10.294837,1776081478.972257,599616571694339964,370
10.302529,1776081478.972257,599616571694339964,384
10.310222,1776081478.972257,599616571694339964,395
10.317914,1776081478.972257,599616571694339964,393
10.325606,1776081478.972257,599616571694339964,400
10.333299,1776081478.972257,599616571694339964,404
10.340991,1776081478.972257,599616571694339964,407
10.348683,1776081478.972257,599616571694339964,404
10.356376,1776081478.972257,599616571694339964,413
10.364068,1776081478.972257,599616571694339964,436
10.371760,1776081478.972257,599616571694339964,388
10.379452,1776081478.972257,599616571694339964,285
10.387145,1776081478.972257,599616571694339964,262
10.394837,1776081478.972257,599616571694339964,281
10.402529,1776081478.972257,599616571694339964,276
10.410222,1776081478.972257,599616571694339964,272
10.417914,1776081478.972257,599616571694339964,267
10.425606,1776081478.972257,599616571694339964,258
10.433299,1776081478.972257,599616571694339964,265
10.440991,1776081478.972257,599616571694339964,274
10.448683,1776081478.972257,599616571694339964,272
10.456376,1776081478.972257,599616571694339964,272
10.464068,1776081478.972257,599616571694339964,281
10.471760,1776081478.972257,599616571694339964,278
10.479452,1776081478.972257,599616571694339964,267
10.487145,1776081478.972257,599616571694339964,260
10.494837,1776081478.972257,599616571694339964,246
10.502529,1776081478.972257,599616571694339964,235
10.510222,1776081478.972257,599616571694339964,221
10.517914,1776081478.972257,599616571694339964,187
10.525606,1776081478.972257,599616571694339964,162
10.533299,1776081478.972257,599616571694339964,169
10.540991,1776081478.972257,599616571694339964,189
10.548683,1776081478.972257,599616571694339964,196
10.556376,1776081478.972257,599616571694339964,185
10.564068,1776081478.972257,599616571694339964,178
10.571760,1776081478.972257,599616571694339964,157
10.579453,1776081478.972257,599616571694339964,144
10.587145,1776081478.972257,599616571694339964,166
10.594837,1776081478.972257,599616571694339964,214
10.602529,1776081478.972257,599616571694339964,283
10.610222,1776081478.972257,599616571694339964,322
10.617914,1776081478.972257,599616571694339964,276
10.625606,1776081478.972257,599616571694339964,224
10.633299,1776081478.972257,599616571694339964,237
10.640991,1776081478.972257,599616571694339964,276
10.648683,1776081478.972257,599616571694339964,278
10.656376,1776081478.972257,599616571694339964,260
10.664068,1776081478.972257,599616571694339964,246
10.671900,1776081479.512553,599616572256018668,288
10.679593,1776081479.512553,599616572256018668,425
10.687285,1776081479.512553,599616572256018668,349
10.694977,1776081479.512553,599616572256018668,50
10.702670,1776081479.512553,599616572256018668,121
10.710362,1776081479.512553,599616572256018668,365
10.718054,1776081479.512553,599616572256018668,285
10.725747,1776081479.512553,599616572256018668,208
10.733439,1776081479.512553,599616572256018668,301
10.741131,1776081479.512553,599616572256018668,329
10.748823,1776081479.512553,599616572256018668,262
10.756516,1776081479.512553,599616572256018668,226
10.764208,1776081479.512553,599616572256018668,251
10.771900,1776081479.512553,599616572256018668,278
10.779593,1776081479.512553,599616572256018668,274
10.787285,1776081479.512553,599616572256018668,278
10.794977,1776081479.512553,599616572256018668,304
10.802670,1776081479.512553,599616572256018668,311
10.810362,1776081479.512553,599616572256018668,292
10.818054,1776081479.512553,599616572256018668,288
10.825747,1776081479.512553,599616572256018668,278
10.833439,1776081479.512553,599616572256018668,240
10.841131,1776081479.512553,599616572256018668,219
10.848823,1776081479.512553,599616572256018668,210
10.856516,1776081479.512553,599616572256018668,157
10.864208,1776081479.512553,599616572256018668,96
10.871900,1776081479.512553,599616572256018668,57
10.879593,1776081479.512553,599616572256018668,38
10.887285,1776081479.512553,599616572256018668,50
10.894977,1776081479.512553,599616572256018668,70
10.902670,1776081479.512553,599616572256018668,70
10.910362,1776081479.512553,599616572256018668,59
10.918054,1776081479.512553,599616572256018668,48
10.925747,1776081479.512553,599616572256018668,38
10.933439,1776081479.512553,599616572256018668,36
10.941131,1776081479.512553,599616572256018668,36
10.948823,1776081479.512553,599616572256018668,36
10.956516,1776081479.512553,599616572256018668,41
10.964208,1776081479.512553,599616572256018668,50
10.971900,1776081479.512553,599616572256018668,52
10.979593,1776081479.512553,599616572256018668,70
10.987285,1776081479.512553,599616572256018668,100
10.994977,1776081479.512553,599616572256018668,109
11.002670,1776081479.512553,599616572256018668,102
11.010362,1776081479.512553,599616572256018668,82
11.018054,1776081479.512553,599616572256018668,66
11.025746,1776081479.512553,599616572256018668,66
11.033439,1776081479.512553,599616572256018668,50
11.041131,1776081479.512553,599616572256018668,29
11.048823,1776081479.512553,599616572256018668,25
11.056516,1776081479.512553,599616572256018668,27
11.064208,1776081479.512553,599616572256018668,52
11.071900,1776081479.512553,599616572256018668,48
11.079593,1776081479.512553,599616572256018668,20
11.087285,1776081479.512553,599616572256018668,36
11.094977,1776081479.512553,599616572256018668,52
11.102670,1776081479.512553,599616572256018668,48
11.110362,1776081479.512553,599616572256018668,68
11.118054,1776081479.512553,599616572256018668,100
11.125746,1776081479.512553,599616572256018668,109
11.133439,1776081479.512553,599616572256018668,173
11.141131,1776081479.512553,599616572256018668,306
11.148823,1776081479.512553,599616572256018668,150
11.156516,1776081479.512553,599616572256018668,-132
11.164208,1776081479.512553,599616572256018668,25
11.171900,1776081479.512553,599616572256018668,196
11.179593,1776081479.512553,599616572256018668,64
11.187285,1776081479.512553,599616572256018668,61
11.194977,1776081479.512553,599616572256018668,160
11.202670,1776081479.512553,599616572256018668,141
11.210362,1776081479.512553,599616572256018668,132
11.218054,1776081479.512553,599616572256018668,185
11.225747,1776081479.512553,599616572256018668,201
11.233554,1776081480.051765,599616572817671940,185
11.241246,1776081480.051765,599616572817671940,198
11.248938,1776081480.051765,599616572817671940,212
11.256631,1776081480.051765,599616572817671940,208
11.264323,1776081480.051765,599616572817671940,212
11.272015,1776081480.051765,599616572817671940,224
11.279707,1776081480.051765,599616572817671940,228
11.287400,1776081480.051765,599616572817671940,230
11.295092,1776081480.051765,599616572817671940,240
11.302784,1776081480.051765,599616572817671940,258
11.310477,1776081480.051765,599616572817671940,230
11.318169,1776081480.051765,599616572817671940,148
11.325861,1776081480.051765,599616572817671940,123
11.333554,1776081480.051765,599616572817671940,148
11.341246,1776081480.051765,599616572817671940,157
11.348938,1776081480.051765,599616572817671940,160
11.356631,1776081480.051765,599616572817671940,162
11.364323,1776081480.051765,599616572817671940,169
11.372015,1776081480.051765,599616572817671940,164
11.379707,1776081480.051765,599616572817671940,155
11.387400,1776081480.051765,599616572817671940,160
11.395092,1776081480.051765,599616572817671940,164
11.402784,1776081480.051765,599616572817671940,173
11.410477,1776081480.051765,599616572817671940,162
11.418169,1776081480.051765,599616572817671940,130
11.425861,1776081480.051765,599616572817671940,128
11.433554,1776081480.051765,599616572817671940,139
11.441246,1776081480.051765,599616572817671940,130
11.448938,1776081480.051765,599616572817671940,112
11.456631,1776081480.051765,599616572817671940,105
11.464323,1776081480.051765,599616572817671940,112
11.472015,1776081480.051765,599616572817671940,114
11.479707,1776081480.051765,599616572817671940,114
11.487400,1776081480.051765,599616572817671940,121
11.495092,1776081480.051765,599616572817671940,125
11.502784,1776081480.051765,599616572817671940,130
11.510477,1776081480.051765,599616572817671940,128
11.518169,1776081480.051765,599616572817671940,141
11.525861,1776081480.051765,599616572817671940,189
11.533554,1776081480.051765,599616572817671940,214
11.541246,1776081480.051765,599616572817671940,180
11.548938,1776081480.051765,599616572817671940,134
11.556630,1776081480.051765,599616572817671940,121
11.564323,1776081480.051765,599616572817671940,130
11.572015,1776081480.051765,599616572817671940,128
11.579708,1776081480.051765,599616572817671940,125
11.587400,1776081480.051765,599616572817671940,130
11.595092,1776081480.051765,599616572817671940,130
11.602784,1776081480.051765,599616572817671940,162
11.610477,1776081480.051765,599616572817671940,294
11.618169,1776081480.051765,599616572817671940,290
11.625861,1776081480.051765,599616572817671940,66
11.633554,1776081480.051765,599616572817671940,105
11.641246,1776081480.051765,599616572817671940,274
11.648938,1776081480.051765,599616572817671940,205
11.656631,1776081480.051765,599616572817671940,185
11.664323,1776081480.051765,599616572817671940,292
11.672015,1776081480.051765,599616572817671940,304
11.679707,1776081480.051765,599616572817671940,265
11.687400,1776081480.051765,599616572817671940,276
11.695092,1776081480.051765,599616572817671940,292
11.702784,1776081480.051765,599616572817671940,292
11.710477,1776081480.051765,599616572817671940,301
11.718169,1776081480.051765,599616572817671940,313
11.725861,1776081480.051765,599616572817671940,331
11.733554,1776081480.051765,599616572817671940,331
11.741246,1776081480.051765,599616572817671940,301
11.748938,1776081480.051765,599616572817671940,256
11.756631,1776081480.051765,599616572817671940,219
11.764323,1776081480.051765,599616572817671940,217
11.772015,1776081480.051765,599616572817671940,246
11.779707,1776081480.051765,599616572817671940,237
11.787400,1776081480.051765,599616572817671940,162
11.795227,1776081480.591653,599616573379345556,132
11.802920,1776081480.591653,599616573379345556,169
11.810612,1776081480.591653,599616573379345556,171
11.818304,1776081480.591653,599616573379345556,160
11.825997,1776081480.591653,599616573379345556,178
11.833689,1776081480.591653,599616573379345556,194
11.841381,1776081480.591653,599616573379345556,210
11.849073,1776081480.591653,599616573379345556,212
11.856766,1776081480.591653,599616573379345556,201
11.864458,1776081480.591653,599616573379345556,187
11.872150,1776081480.591653,599616573379345556,171
11.879843,1776081480.591653,599616573379345556,171
11.887535,1776081480.591653,599616573379345556,178
11.895227,1776081480.591653,599616573379345556,173
11.902920,1776081480.591653,599616573379345556,176
11.910612,1776081480.591653,599616573379345556,178
11.918304,1776081480.591653,599616573379345556,176
11.925997,1776081480.591653,599616573379345556,189
11.933689,1776081480.591653,599616573379345556,205
11.941381,1776081480.591653,599616573379345556,201
11.949073,1776081480.591653,599616573379345556,182
11.956766,1776081480.591653,599616573379345556,171
11.964458,1776081480.591653,599616573379345556,180
11.972150,1776081480.591653,599616573379345556,212
11.979843,1776081480.591653,599616573379345556,235
11.987535,1776081480.591653,599616573379345556,201
11.995227,1776081480.591653,599616573379345556,148
12.002920,1776081480.591653,599616573379345556,141
12.010612,1776081480.591653,599616573379345556,155
12.018304,1776081480.591653,599616573379345556,157
12.025996,1776081480.591653,599616573379345556,155
12.033689,1776081480.591653,599616573379345556,153
12.041381,1776081480.591653,599616573379345556,157
12.049073,1776081480.591653,599616573379345556,162
12.056766,1776081480.591653,599616573379345556,249
12.064458,1776081480.591653,599616573379345556,336
12.072150,1776081480.591653,599616573379345556,171
12.079843,1776081480.591653,599616573379345556,64
12.087535,1776081480.591653,599616573379345556,224
12.095227,1776081480.591653,599616573379345556,242
12.102920,1776081480.591653,599616573379345556,146
12.110612,1776081480.591653,599616573379345556,178
12.118304,1776081480.591653,599616573379345556,201
12.125996,1776081480.591653,599616573379345556,160
12.133689,1776081480.591653,599616573379345556,160
12.141381,1776081480.591653,599616573379345556,182
12.149073,1776081480.591653,599616573379345556,173
12.156766,1776081480.591653,599616573379345556,176
12.164458,1776081480.591653,599616573379345556,198
12.172150,1776081480.591653,599616573379345556,205
12.179843,1776081480.591653,599616573379345556,214
12.187535,1776081480.591653,599616573379345556,233
12.195227,1776081480.591653,599616573379345556,237
12.202920,1776081480.591653,599616573379345556,235
12.210612,1776081480.591653,599616573379345556,230
12.218304,1776081480.591653,599616573379345556,249
12.225996,1776081480.591653,599616573379345556,251
12.233689,1776081480.591653,599616573379345556,185
12.241381,1776081480.591653,599616573379345556,146
12.249073,1776081480.591653,599616573379345556,176
12.256766,1776081480.591653,599616573379345556,176
12.264458,1776081480.591653,599616573379345556,160
12.272150,1776081480.591653,599616573379345556,166
12.279843,1776081480.591653,599616573379345556,173
12.287535,1776081480.591653,599616573379345556,169
12.295227,1776081480.591653,599616573379345556,160
12.302920,1776081480.591653,599616573379345556,155
12.310612,1776081480.591653,599616573379345556,146
12.318304,1776081480.591653,599616573379345556,146
12.325997,1776081480.591653,599616573379345556,160
12.333689,1776081480.591653,599616573379345556,166
12.341381,1776081480.591653,599616573379345556,166
12.349073,1776081480.591653,599616573379345556,169
12.356886,1776081481.177229,599616573941003914,176
12.364578,1776081481.177229,599616573941003914,185
12.372270,1776081481.177229,599616573941003914,180
12.379963,1776081481.177229,599616573941003914,171
12.387655,1776081481.177229,599616573941003914,166
12.395347,1776081481.177229,599616573941003914,157
12.403039,1776081481.177229,599616573941003914,155
12.410732,1776081481.177229,599616573941003914,157
12.418424,1776081481.177229,599616573941003914,157
12.426116,1776081481.177229,599616573941003914,162
12.433809,1776081481.177229,599616573941003914,164
12.441501,1776081481.177229,599616573941003914,178
12.449193,1776081481.177229,599616573941003914,214
12.456886,1776081481.177229,599616573941003914,251
12.464578,1776081481.177229,599616573941003914,244
12.472270,1776081481.177229,599616573941003914,194
12.479963,1776081481.177229,599616573941003914,160
12.487655,1776081481.177229,599616573941003914,155
12.495347,1776081481.177229,599616573941003914,157
12.503039,1776081481.177229,599616573941003914,150
12.510732,1776081481.177229,599616573941003914,123
12.518424,1776081481.177229,599616573941003914,84
12.526116,1776081481.177229,599616573941003914,73
12.533809,1776081481.177229,599616573941003914,98
12.541501,1776081481.177229,599616573941003914,217
12.549193,1776081481.177229,599616573941003914,212
12.556886,1776081481.177229,599616573941003914,0
12.564578,1776081481.177229,599616573941003914,66
12.572270,1776081481.177229,599616573941003914,235
12.579963,1776081481.177229,599616573941003914,150
12.587655,1776081481.177229,599616573941003914,109
12.595347,1776081481.177229,599616573941003914,173
12.603040,1776081481.177229,599616573941003914,164
12.610732,1776081481.177229,599616573941003914,139
12.618424,1776081481.177229,599616573941003914,160
12.626116,1776081481.177229,599616573941003914,169
12.633809,1776081481.177229,599616573941003914,160
12.641501,1776081481.177229,599616573941003914,176
12.649193,1776081481.177229,599616573941003914,187
12.656886,1776081481.177229,599616573941003914,185
12.664578,1776081481.177229,599616573941003914,189
12.672270,1776081481.177229,599616573941003914,187
12.679963,1776081481.177229,599616573941003914,185
12.687655,1776081481.177229,599616573941003914,173
12.695347,1776081481.177229,599616573941003914,166
12.703040,1776081481.177229,599616573941003914,198
12.710732,1776081481.177229,599616573941003914,185
12.718424,1776081481.177229,599616573941003914,112
12.726116,1776081481.177229,599616573941003914,100
12.733809,1776081481.177229,599616573941003914,128
12.741501,1776081481.177229,599616573941003914,128
12.749193,1776081481.177229,599616573941003914,116
12.756886,1776081481.177229,599616573941003914,114
12.764578,1776081481.177229,599616573941003914,109
12.772270,1776081481.177229,599616573941003914,102
12.779963,1776081481.177229,599616573941003914,98
12.787655,1776081481.177229,599616573941003914,89
12.795347,1776081481.177229,599616573941003914,84
12.803039,1776081481.177229,599616573941003914,84
12.810732,1776081481.177229,599616573941003914,70
12.818424,1776081481.177229,599616573941003914,68
12.826116,1776081481.177229,599616573941003914,77
12.833809,1776081481.177229,599616573941003914,75
12.841501,1776081481.177229,599616573941003914,80
12.849193,1776081481.177229,599616573941003914,84
12.856886,1776081481.177229,599616573941003914,82
12.864578,1776081481.177229,599616573941003914,86
12.872270,1776081481.177229,599616573941003914,86
12.879963,1776081481.177229,599616573941003914,91
12.887655,1776081481.177229,599616573941003914,96
12.895347,1776081481.177229,599616573941003914,96
12.903039,1776081481.177229,599616573941003914,93
12.910732,1776081481.177229,599616573941003914,86
12.918574,1776081481.762408,599616574502692790,82
12.926267,1776081481.762408,599616574502692790,82
12.933959,1776081481.762408,599616574502692790,75
12.941651,1776081481.762408,599616574502692790,70
12.949344,1776081481.762408,599616574502692790,66
12.957036,1776081481.762408,599616574502692790,61
12.964728,1776081481.762408,599616574502692790,66
12.972421,1776081481.762408,599616574502692790,75
12.980113,1776081481.762408,599616574502692790,109
12.987805,1776081481.762408,599616574502692790,146
12.995497,1776081481.762408,599616574502692790,139
13.003190,1776081481.762408,599616574502692790,96
13.010882,1776081481.762408,599616574502692790,50
13.018574,1776081481.762408,599616574502692790,34
13.026267,1776081481.762408,599616574502692790,41
13.033959,1776081481.762408,599616574502692790,38
13.041651,1776081481.762408,599616574502692790,41
13.049344,1776081481.762408,599616574502692790,54
13.057036,1776081481.762408,599616574502692790,61
13.064728,1776081481.762408,599616574502692790,57
13.072421,1776081481.762408,599616574502692790,125
13.080113,1776081481.762408,599616574502692790,198
13.087805,1776081481.762408,599616574502692790,48
13.095497,1776081481.762408,599616574502692790,-45
13.103190,1776081481.762408,599616574502692790,114
13.110882,1776081481.762408,599616574502692790,132
13.118574,1776081481.762408,599616574502692790,45
13.126267,1776081481.762408,599616574502692790,80
13.133959,1776081481.762408,599616574502692790,107
13.141651,1776081481.762408,599616574502692790,80
13.149344,1776081481.762408,599616574502692790,82
13.157036,1776081481.762408,599616574502692790,93
13.164728,1776081481.762408,599616574502692790,84
13.172421,1776081481.762408,599616574502692790,80
13.180113,1776081481.762408,599616574502692790,93
13.187805,1776081481.762408,599616574502692790,96
13.195498,1776081481.762408,599616574502692790,89
13.203190,1776081481.762408,599616574502692790,96
13.210882,1776081481.762408,599616574502692790,98
13.218574,1776081481.762408,599616574502692790,89
13.226267,1776081481.762408,599616574502692790,77
13.233959,1776081481.762408,599616574502692790,96
13.241651,1776081481.762408,599616574502692790,130
13.249344,1776081481.762408,599616574502692790,91
13.257036,1776081481.762408,599616574502692790,27
13.264728,1776081481.762408,599616574502692790,32
13.272421,1776081481.762408,599616574502692790,50
13.280113,1776081481.762408,599616574502692790,43
13.287805,1776081481.762408,599616574502692790,45
13.295498,1776081481.762408,599616574502692790,50
13.303190,1776081481.762408,599616574502692790,50
13.310882,1776081481.762408,599616574502692790,45
13.318574,1776081481.762408,599616574502692790,48
13.326267,1776081481.762408,599616574502692790,52
13.333959,1776081481.762408,599616574502692790,50
13.341651,1776081481.762408,599616574502692790,43
13.349344,1776081481.762408,599616574502692790,38
13.357036,1776081481.762408,599616574502692790,36
13.364728,1776081481.762408,599616574502692790,38
13.372421,1776081481.762408,599616574502692790,41
13.380113,1776081481.762408,599616574502692790,43
13.387805,1776081481.762408,599616574502692790,45
13.395497,1776081481.762408,599616574502692790,41
13.403190,1776081481.762408,599616574502692790,45
13.410882,1776081481.762408,599616574502692790,43
13.418574,1776081481.762408,599616574502692790,43
13.426267,1776081481.762408,599616574502692790,48
13.433959,1776081481.762408,599616574502692790,50
13.441651,1776081481.762408,599616574502692790,52
13.449344,1776081481.762408,599616574502692790,50
13.457036,1776081481.762408,599616574502692790,50
13.464728,1776081481.762408,599616574502692790,57
13.472421,1776081481.762408,599616574502692790,57
13.480263,1776081482.301534,599616575064381668,57
13.487956,1776081482.301534,599616575064381668,54
13.495648,1776081482.301534,599616575064381668,52
13.503340,1776081482.301534,599616575064381668,54
13.511033,1776081482.301534,599616575064381668,54
13.518725,1776081482.301534,599616575064381668,61
13.526417,1776081482.301534,599616575064381668,68
13.534110,1776081482.301534,599616575064381668,59
13.541802,1776081482.301534,599616575064381668,57
13.549494,1776081482.301534,599616575064381668,61
13.557186,1776081482.301534,599616575064381668,59
13.564879,1776081482.301534,599616575064381668,57
13.572571,1776081482.301534,599616575064381668,57
13.580263,1776081482.301534,599616575064381668,86
13.587956,1776081482.301534,599616575064381668,125
13.595648,1776081482.301534,599616575064381668,109
13.603340,1776081482.301534,599616575064381668,59
13.611033,1776081482.301534,599616575064381668,16
13.618725,1776081482.301534,599616575064381668,2
13.626417,1776081482.301534,599616575064381668,13
13.634110,1776081482.301534,599616575064381668,18
13.641802,1776081482.301534,599616575064381668,16
13.649494,1776081482.301534,599616575064381668,18
13.657187,1776081482.301534,599616575064381668,18
13.664879,1776081482.301534,599616575064381668,41
13.672571,1776081482.301534,599616575064381668,144
13.680263,1776081482.301534,599616575064381668,112
13.687956,1776081482.301534,599616575064381668,-73
13.695648,1776081482.301534,599616575064381668,11
13.703340,1776081482.301534,599616575064381668,134
13.711033,1776081482.301534,599616575064381668,36
13.718725,1776081482.301534,599616575064381668,25
13.726417,1776081482.301534,599616575064381668,86
13.734110,1776081482.301534,599616575064381668,68
13.741802,1776081482.301534,599616575064381668,64
13.749494,1776081482.301534,599616575064381668,89
13.757187,1776081482.301534,599616575064381668,91
13.764879,1776081482.301534,599616575064381668,89
13.772571,1776081482.301534,599616575064381668,96
13.780263,1776081482.301534,599616575064381668,100
13.787956,1776081482.301534,599616575064381668,102
13.795648,1776081482.301534,599616575064381668,102
13.803340,1776081482.301534,599616575064381668,112
13.811033,1776081482.301534,599616575064381668,112
13.818725,1776081482.301534,599616575064381668,96
13.826417,1776081482.301534,599616575064381668,91
13.834110,1776081482.301534,599616575064381668,125
13.841802,1776081482.301534,599616575064381668,134
13.849494,1776081482.301534,599616575064381668,66
13.857187,1776081482.301534,599616575064381668,38
13.864879,1776081482.301534,599616575064381668,73
13.872571,1776081482.301534,599616575064381668,70
13.880263,1776081482.301534,599616575064381668,52
13.887956,1776081482.301534,599616575064381668,57
13.895648,1776081482.301534,599616575064381668,64
13.903340,1776081482.301534,599616575064381668,70
13.911033,1776081482.301534,599616575064381668,73
13.918725,1776081482.301534,599616575064381668,80
13.926417,1776081482.301534,599616575064381668,86
13.934110,1776081482.301534,599616575064381668,86
13.941802,1776081482.301534,599616575064381668,86
13.949494,1776081482.301534,599616575064381668,84
13.957186,1776081482.301534,599616575064381668,84
13.964879,1776081482.301534,599616575064381668,86
13.972571,1776081482.301534,599616575064381668,89
13.980263,1776081482.301534,599616575064381668,91
13.987956,1776081482.301534,599616575064381668,93
13.995648,1776081482.301534,599616575064381668,89
14.003340,1776081482.301534,599616575064381668,86
14.011033,1776081482.301534,599616575064381668,86
14.018725,1776081482.301534,599616575064381668,82
14.026417,1776081482.301534,599616575064381668,80
14.034110,1776081482.301534,599616575064381668,82
14.041952,1776081482.886592,599616575626070544,93
14.049644,1776081482.886592,599616575626070544,93
14.057337,1776081482.886592,599616575626070544,96
14.065029,1776081482.886592,599616575626070544,100
14.072721,1776081482.886592,599616575626070544,96
14.080414,1776081482.886592,599616575626070544,100
14.088106,1776081482.886592,599616575626070544,109
14.095798,1776081482.886592,599616575626070544,109
14.103491,1776081482.886592,599616575626070544,114
14.111183,1776081482.886592,599616575626070544,112
14.118875,1776081482.886592,599616575626070544,109
14.126568,1776081482.886592,599616575626070544,112
14.134260,1776081482.886592,599616575626070544,114
14.141952,1776081482.886592,599616575626070544,148
14.149644,1776081482.886592,599616575626070544,194
14.157337,1776081482.886592,599616575626070544,196
14.165029,1776081482.886592,599616575626070544,148
14.172722,1776081482.886592,599616575626070544,107
14.180414,1776081482.886592,599616575626070544,116
14.188106,1776081482.886592,599616575626070544,130
14.195798,1776081482.886592,599616575626070544,118
14.203491,1776081482.886592,599616575626070544,116
14.211183,1776081482.886592,599616575626070544,118
14.218875,1776081482.886592,599616575626070544,121
14.226568,1776081482.886592,599616575626070544,134
14.234260,1776081482.886592,599616575626070544,235
14.241952,1776081482.886592,599616575626070544,230
14.249645,1776081482.886592,599616575626070544,38
14.257337,1776081482.886592,599616575626070544,91
14.265029,1776081482.886592,599616575626070544,230
14.272721,1776081482.886592,599616575626070544,141
14.280414,1776081482.886592,599616575626070544,109
14.288106,1776081482.886592,599616575626070544,169
14.295798,1776081482.886592,599616575626070544,153
14.303491,1776081482.886592,599616575626070544,130
14.311183,1776081482.886592,599616575626070544,146
14.318875,1776081482.886592,599616575626070544,148
14.326568,1776081482.886592,599616575626070544,141
14.334260,1776081482.886592,599616575626070544,146
14.341952,1776081482.886592,599616575626070544,150
14.349645,1776081482.886592,599616575626070544,148
14.357337,1776081482.886592,599616575626070544,150
14.365029,1776081482.886592,599616575626070544,162
14.372721,1776081482.886592,599616575626070544,160
14.380414,1776081482.886592,599616575626070544,144
14.388106,1776081482.886592,599616575626070544,137
14.395798,1776081482.886592,599616575626070544,166
14.403491,1776081482.886592,599616575626070544,173
14.411183,1776081482.886592,599616575626070544,102
14.418875,1776081482.886592,599616575626070544,70
14.426568,1776081482.886592,599616575626070544,96
14.434260,1776081482.886592,599616575626070544,91
14.441952,1776081482.886592,599616575626070544,82
14.449645,1776081482.886592,599616575626070544,86
14.457337,1776081482.886592,599616575626070544,89
14.465029,1776081482.886592,599616575626070544,82
14.472721,1776081482.886592,599616575626070544,75
14.480414,1776081482.886592,599616575626070544,80
14.488106,1776081482.886592,599616575626070544,84
14.495798,1776081482.886592,599616575626070544,80
14.503491,1776081482.886592,599616575626070544,77
14.511183,1776081482.886592,599616575626070544,70
14.518875,1776081482.886592,599616575626070544,68
14.526568,1776081482.886592,599616575626070544,70
14.534260,1776081482.886592,599616575626070544,68
14.541952,1776081482.886592,599616575626070544,73
14.549644,1776081482.886592,599616575626070544,73
14.557337,1776081482.886592,599616575626070544,70
14.565029,1776081482.886592,599616575626070544,70
14.572721,1776081482.886592,599616575626070544,73
14.580414,1776081482.886592,599616575626070544,77
14.588106,1776081482.886592,599616575626070544,80
14.595798,1776081482.886592,599616575626070544,82
14.603641,1776081483.426859,599616576187759420,82
14.611333,1776081483.426859,599616576187759420,75
14.619026,1776081483.426859,599616576187759420,77
14.626718,1776081483.426859,599616576187759420,80
14.634410,1776081483.426859,599616576187759420,75
14.642103,1776081483.426859,599616576187759420,75
14.649795,1776081483.426859,599616576187759420,75
14.657487,1776081483.426859,599616576187759420,86
14.665180,1776081483.426859,599616576187759420,134
14.672872,1776081483.426859,599616576187759420,173
14.680564,1776081483.426859,599616576187759420,146
14.688257,1776081483.426859,599616576187759420,82
14.695949,1776081483.426859,599616576187759420,45
14.703641,1776081483.426859,599616576187759420,45
14.711333,1776081483.426859,599616576187759420,50
14.719026,1776081483.426859,599616576187759420,48
14.726718,1776081483.426859,599616576187759420,43
14.734410,1776081483.426859,599616576187759420,34
14.742103,1776081483.426859,599616576187759420,32
14.749795,1776081483.426859,599616576187759420,68
14.757487,1776081483.426859,599616576187759420,139
14.765180,1776081483.426859,599616576187759420,66
14.772872,1776081483.426859,599616576187759420,-45
14.780564,1776081483.426859,599616576187759420,66
14.788257,1776081483.426859,599616576187759420,128
14.795949,1776081483.426859,599616576187759420,45
14.803641,1776081483.426859,599616576187759420,59
14.811333,1776081483.426859,599616576187759420,89
14.819026,1776081483.426859,599616576187759420,61
14.826718,1776081483.426859,599616576187759420,59
14.834410,1776081483.426859,599616576187759420,73
14.842103,1776081483.426859,599616576187759420,73
14.849795,1776081483.426859,599616576187759420,73
14.857487,1776081483.426859,599616576187759420,84
14.865180,1776081483.426859,599616576187759420,91
14.872872,1776081483.426859,599616576187759420,91
14.880564,1776081483.426859,599616576187759420,102
14.888257,1776081483.426859,599616576187759420,112
14.895949,1776081483.426859,599616576187759420,109
14.903641,1776081483.426859,599616576187759420,100
14.911333,1776081483.426859,599616576187759420,105
14.919026,1776081483.426859,599616576187759420,128
14.926718,1776081483.426859,599616576187759420,89
14.934410,1776081483.426859,599616576187759420,25
14.942103,1776081483.426859,599616576187759420,32
14.949795,1776081483.426859,599616576187759420,50
14.957487,1776081483.426859,599616576187759420,36
14.965180,1776081483.426859,599616576187759420,34
14.972872,1776081483.426859,599616576187759420,41
14.980564,1776081483.426859,599616576187759420,43
14.988256,1776081483.426859,599616576187759420,41
14.995949,1776081483.426859,599616576187759420,38
15.003641,1776081483.426859,599616576187759420,41
15.011333,1776081483.426859,599616576187759420,41
15.019026,1776081483.426859,599616576187759420,41
15.026718,1776081483.426859,599616576187759420,41
15.034410,1776081483.426859,599616576187759420,36
15.042103,1776081483.426859,599616576187759420,38
15.049795,1776081483.426859,599616576187759420,43
15.057487,1776081483.426859,599616576187759420,41
15.065180,1776081483.426859,599616576187759420,41
15.072872,1776081483.426859,599616576187759420,41
15.080564,1776081483.426859,599616576187759420,45
15.088256,1776081483.426859,599616576187759420,41
15.095949,1776081483.426859,599616576187759420,34
15.103641,1776081483.426859,599616576187759420,34
15.111333,1776081483.426859,599616576187759420,38
15.119026,1776081483.426859,599616576187759420,43
15.126718,1776081483.426859,599616576187759420,45
15.134410,1776081483.426859,599616576187759420,45
15.142103,1776081483.426859,599616576187759420,50
15.149795,1776081483.426859,599616576187759420,50
15.157487,1776081483.426859,599616576187759420,52
15.165361,1776081484.012710,599616576749478814,59
15.173053,1776081484.012710,599616576749478814,89
15.180745,1776081484.012710,599616576749478814,141
15.188437,1776081484.012710,599616576749478814,137
15.196130,1776081484.012710,599616576749478814,70
15.203822,1776081484.012710,599616576749478814,27
15.211514,1776081484.012710,599616576749478814,25
15.219207,1776081484.012710,599616576749478814,36
15.226899,1776081484.012710,599616576749478814,36
15.234591,1776081484.012710,599616576749478814,27
15.242284,1776081484.012710,599616576749478814,32
15.249976,1776081484.012710,599616576749478814,36
15.257668,1776081484.012710,599616576749478814,50
15.265361,1776081484.012710,599616576749478814,137
15.273053,1776081484.012710,599616576749478814,144
15.280745,1776081484.012710,599616576749478814,32
15.288437,1776081484.012710,599616576749478814,107
15.296130,1776081484.012710,599616576749478814,178
15.303822,1776081484.012710,599616576749478814,75
15.311514,1776081484.012710,599616576749478814,61
15.319207,1776081484.012710,599616576749478814,109
15.326899,1776081484.012710,599616576749478814,91
15.334591,1776081484.012710,599616576749478814,86
15.342284,1776081484.012710,599616576749478814,114
15.349976,1776081484.012710,599616576749478814,102
15.357668,1776081484.012710,599616576749478814,91
15.365360,1776081484.012710,599616576749478814,109
15.373053,1776081484.012710,599616576749478814,109
15.380745,1776081484.012710,599616576749478814,107
15.388438,1776081484.012710,599616576749478814,134
15.396130,1776081484.012710,599616576749478814,210
15.403822,1776081484.012710,599616576749478814,269
15.411514,1776081484.012710,599616576749478814,281
15.419207,1776081484.012710,599616576749478814,354
15.426899,1776081484.012710,599616576749478814,461
15.434591,1776081484.012710,599616576749478814,413
15.442284,1776081484.012710,599616576749478814,281
15.449976,1776081484.012710,599616576749478814,253
15.457668,1776081484.012710,599616576749478814,267
15.465361,1776081484.012710,599616576749478814,240
15.473053,1776081484.012710,599616576749478814,224
15.480745,1776081484.012710,599616576749478814,226
15.488437,1776081484.012710,599616576749478814,189
15.496130,1776081484.012710,599616576749478814,84
15.503822,1776081484.012710,599616576749478814,-4
15.511514,1776081484.012710,599616576749478814,-9
15.519207,1776081484.012710,599616576749478814,11
15.526899,1776081484.012710,599616576749478814,0
15.534591,1776081484.012710,599616576749478814,-11
15.542284,1776081484.012710,599616576749478814,0
15.549976,1776081484.012710,599616576749478814,0
15.557668,1776081484.012710,599616576749478814,-4
15.565361,1776081484.012710,599616576749478814,2
15.573053,1776081484.012710,599616576749478814,2
15.580745,1776081484.012710,599616576749478814,4
15.588437,1776081484.012710,599616576749478814,6
15.596130,1776081484.012710,599616576749478814,6
15.603822,1776081484.012710,599616576749478814,9
15.611514,1776081484.012710,599616576749478814,11
15.619207,1776081484.012710,599616576749478814,11
15.626899,1776081484.012710,599616576749478814,9
15.634591,1776081484.012710,599616576749478814,6
15.642284,1776081484.012710,599616576749478814,9
15.649976,1776081484.012710,599616576749478814,6
15.657668,1776081484.012710,599616576749478814,6
15.665361,1776081484.012710,599616576749478814,6
15.673053,1776081484.012710,599616576749478814,9
15.680745,1776081484.012710,599616576749478814,16
15.688437,1776081484.012710,599616576749478814,16
15.696130,1776081484.012710,599616576749478814,32
15.703822,1776081484.012710,599616576749478814,77
15.711514,1776081484.012710,599616576749478814,112
15.719207,1776081484.012710,599616576749478814,96
15.727049,1776081484.508286,599616577311167690,43
15.734742,1776081484.508286,599616577311167690,0
15.742434,1776081484.508286,599616577311167690,4
15.750126,1776081484.508286,599616577311167690,18
15.757819,1776081484.508286,599616577311167690,18
15.765511,1776081484.508286,599616577311167690,13
15.773203,1776081484.508286,599616577311167690,20
15.780896,1776081484.508286,599616577311167690,29
15.788588,1776081484.508286,599616577311167690,22
15.796280,1776081484.508286,599616577311167690,107
15.803972,1776081484.508286,599616577311167690,150
15.811665,1776081484.508286,599616577311167690,-29
15.819357,1776081484.508286,599616577311167690,-29
15.827049,1776081484.508286,599616577311167690,109
15.834742,1776081484.508286,599616577311167690,54
15.842434,1776081484.508286,599616577311167690,16
15.850126,1776081484.508286,599616577311167690,66
15.857819,1776081484.508286,599616577311167690,66
15.865511,1776081484.508286,599616577311167690,54
15.873203,1776081484.508286,599616577311167690,70
15.880896,1776081484.508286,599616577311167690,77
15.888588,1776081484.508286,599616577311167690,73
15.896280,1776081484.508286,599616577311167690,80
15.903973,1776081484.508286,599616577311167690,86
15.911665,1776081484.508286,599616577311167690,84
15.919357,1776081484.508286,599616577311167690,91
15.927049,1776081484.508286,599616577311167690,100
15.934742,1776081484.508286,599616577311167690,98
15.942434,1776081484.508286,599616577311167690,84
15.950126,1776081484.508286,599616577311167690,77
15.957819,1776081484.508286,599616577311167690,109
15.965511,1776081484.508286,599616577311167690,118
15.973203,1776081484.508286,599616577311167690,48
15.980896,1776081484.508286,599616577311167690,20
15.988588,1776081484.508286,599616577311167690,48
15.996280,1776081484.508286,599616577311167690,38
16.003973,1776081484.508286,599616577311167690,25
16.011665,1776081484.508286,599616577311167690,34
16.019357,1776081484.508286,599616577311167690,41
16.027049,1776081484.508286,599616577311167690,34
16.034742,1776081484.508286,599616577311167690,34
16.042434,1776081484.508286,599616577311167690,34
16.050126,1776081484.508286,599616577311167690,29
16.057819,1776081484.508286,599616577311167690,32
16.065511,1776081484.508286,599616577311167690,34
16.073203,1776081484.508286,599616577311167690,34
16.080896,1776081484.508286,599616577311167690,38
16.088588,1776081484.508286,599616577311167690,36
16.096280,1776081484.508286,599616577311167690,36
16.103973,1776081484.508286,599616577311167690,41
16.111665,1776081484.508286,599616577311167690,43
16.119357,1776081484.508286,599616577311167690,43
16.127049,1776081484.508286,599616577311167690,43
16.134742,1776081484.508286,599616577311167690,43
16.142434,1776081484.508286,599616577311167690,45
16.150126,1776081484.508286,599616577311167690,41
16.157819,1776081484.508286,599616577311167690,38
16.165511,1776081484.508286,599616577311167690,43
16.173203,1776081484.508286,599616577311167690,36
16.180896,1776081484.508286,599616577311167690,32
16.188588,1776081484.508286,599616577311167690,32
16.196280,1776081484.508286,599616577311167690,34
16.203972,1776081484.508286,599616577311167690,38
16.211665,1776081484.508286,599616577311167690,36
16.219357,1776081484.508286,599616577311167690,41
16.227049,1776081484.508286,599616577311167690,38
16.234742,1776081484.508286,599616577311167690,36
16.242434,1776081484.508286,599616577311167690,43
16.250126,1776081484.508286,599616577311167690,43
16.257819,1776081484.508286,599616577311167690,45
16.265511,1776081484.508286,599616577311167690,61
16.273203,1776081484.508286,599616577311167690,98
16.280896,1776081484.508286,599616577311167690,134
16.288738,1776081485.100035,599616577872856568,121
16.296431,1776081485.100035,599616577872856568,64
16.304123,1776081485.100035,599616577872856568,18
16.311815,1776081485.100035,599616577872856568,6
16.319508,1776081485.100035,599616577872856568,13
16.327200,1776081485.100035,599616577872856568,11
16.334892,1776081485.100035,599616577872856568,9
16.342584,1776081485.100035,599616577872856568,18
16.350277,1776081485.100035,599616577872856568,18
16.357969,1776081485.100035,599616577872856568,2
16.365661,1776081485.100035,599616577872856568,102
16.373354,1776081485.100035,599616577872856568,182
16.381046,1776081485.100035,599616577872856568,-2
16.388738,1776081485.100035,599616577872856568,-36
16.396431,1776081485.100035,599616577872856568,121
16.404123,1776081485.100035,599616577872856568,75
16.411815,1776081485.100035,599616577872856568,9
16.419508,1776081485.100035,599616577872856568,70
16.427200,1776081485.100035,599616577872856568,77
16.434892,1776081485.100035,599616577872856568,45
16.442585,1776081485.100035,599616577872856568,66
16.450277,1776081485.100035,599616577872856568,75
16.457969,1776081485.100035,599616577872856568,61
16.465661,1776081485.100035,599616577872856568,66
16.473354,1776081485.100035,599616577872856568,68
16.481046,1776081485.100035,599616577872856568,70
16.488738,1776081485.100035,599616577872856568,75
16.496431,1776081485.100035,599616577872856568,80
16.504123,1776081485.100035,599616577872856568,77
16.511815,1776081485.100035,599616577872856568,64
16.519508,1776081485.100035,599616577872856568,57
16.527200,1776081485.100035,599616577872856568,91
16.534892,1776081485.100035,599616577872856568,112
16.542585,1776081485.100035,599616577872856568,50
16.550277,1776081485.100035,599616577872856568,6
16.557969,1776081485.100035,599616577872856568,41
16.565661,1776081485.100035,599616577872856568,48
16.573354,1776081485.100035,599616577872856568,29
16.581046,1776081485.100035,599616577872856568,38
16.588738,1776081485.100035,599616577872856568,41
16.596431,1776081485.100035,599616577872856568,36
16.604123,1776081485.100035,599616577872856568,43
16.611815,1776081485.100035,599616577872856568,43
16.619508,1776081485.100035,599616577872856568,43
16.627200,1776081485.100035,599616577872856568,43
16.634892,1776081485.100035,599616577872856568,43
16.642584,1776081485.100035,599616577872856568,45
16.650277,1776081485.100035,599616577872856568,43
16.657969,1776081485.100035,599616577872856568,48
16.665661,1776081485.100035,599616577872856568,52
16.673354,1776081485.100035,599616577872856568,48
16.681046,1776081485.100035,599616577872856568,52
16.688738,1776081485.100035,599616577872856568,52
16.696431,1776081485.100035,599616577872856568,54
16.704123,1776081485.100035,599616577872856568,57
16.711815,1776081485.100035,599616577872856568,54
16.719508,1776081485.100035,599616577872856568,54
16.727200,1776081485.100035,599616577872856568,50
16.734892,1776081485.100035,599616577872856568,52
16.742584,1776081485.100035,599616577872856568,57
16.750277,1776081485.100035,599616577872856568,54
16.757969,1776081485.100035,599616577872856568,54
16.765661,1776081485.100035,599616577872856568,59
16.773354,1776081485.100035,599616577872856568,57
16.781046,1776081485.100035,599616577872856568,59
16.788738,1776081485.100035,599616577872856568,61
16.796431,1776081485.100035,599616577872856568,64
16.804123,1776081485.100035,599616577872856568,64
16.811815,1776081485.100035,599616577872856568,57
16.819508,1776081485.100035,599616577872856568,54
16.827200,1776081485.100035,599616577872856568,59
16.834892,1776081485.100035,599616577872856568,59
16.842584,1776081485.100035,599616577872856568,61
16.850458,1776081485.676904,599616578434575962,59
16.858150,1776081485.676904,599616578434575962,54
16.865842,1776081485.676904,599616578434575962,54
16.873535,1776081485.676904,599616578434575962,54
16.881227,1776081485.676904,599616578434575962,59
16.888919,1776081485.676904,599616578434575962,54
16.896612,1776081485.676904,599616578434575962,50
16.904304,1776081485.676904,599616578434575962,50
16.911996,1776081485.676904,599616578434575962,48
16.919689,1776081485.676904,599616578434575962,52
16.927381,1776081485.676904,599616578434575962,66
16.935073,1776081485.676904,599616578434575962,102
16.942765,1776081485.676904,599616578434575962,141
16.950458,1776081485.676904,599616578434575962,132
16.958150,1776081485.676904,599616578434575962,80
16.965842,1776081485.676904,599616578434575962,34
16.973535,1776081485.676904,599616578434575962,22
16.981227,1776081485.676904,599616578434575962,36
16.988919,1776081485.676904,599616578434575962,34
16.996612,1776081485.676904,599616578434575962,27
17.004304,1776081485.676904,599616578434575962,38
17.011996,1776081485.676904,599616578434575962,43
17.019688,1776081485.676904,599616578434575962,38
17.027381,1776081485.676904,599616578434575962,54
17.035073,1776081485.676904,599616578434575962,173
17.042765,1776081485.676904,599616578434575962,164
17.050458,1776081485.676904,599616578434575962,-38
17.058150,1776081485.676904,599616578434575962,27
17.065842,1776081485.676904,599616578434575962,155
17.073535,1776081485.676904,599616578434575962,61
17.081227,1776081485.676904,599616578434575962,45
17.088919,1776081485.676904,599616578434575962,102
17.096612,1776081485.676904,599616578434575962,86
17.104304,1776081485.676904,599616578434575962,70
17.111996,1776081485.676904,599616578434575962,89
17.119689,1776081485.676904,599616578434575962,93
17.127381,1776081485.676904,599616578434575962,84
17.135073,1776081485.676904,599616578434575962,86
17.142765,1776081485.676904,599616578434575962,91
17.150458,1776081485.676904,599616578434575962,89
17.158150,1776081485.676904,599616578434575962,93
17.165842,1776081485.676904,599616578434575962,100
17.173535,1776081485.676904,599616578434575962,96
17.181227,1776081485.676904,599616578434575962,82
17.188919,1776081485.676904,599616578434575962,70
17.196612,1776081485.676904,599616578434575962,112
17.204304,1776081485.676904,599616578434575962,130
17.211996,1776081485.676904,599616578434575962,59
17.219689,1776081485.676904,599616578434575962,25
17.227381,1776081485.676904,599616578434575962,54
17.235073,1776081485.676904,599616578434575962,54
17.242765,1776081485.676904,599616578434575962,38
17.250458,1776081485.676904,599616578434575962,45
17.258150,1776081485.676904,599616578434575962,52
17.265842,1776081485.676904,599616578434575962,48
17.273535,1776081485.676904,599616578434575962,45
17.281227,1776081485.676904,599616578434575962,52
17.288919,1776081485.676904,599616578434575962,50
17.296612,1776081485.676904,599616578434575962,50
17.304304,1776081485.676904,599616578434575962,54
17.311996,1776081485.676904,599616578434575962,48
17.319689,1776081485.676904,599616578434575962,45
17.327381,1776081485.676904,599616578434575962,50
17.335073,1776081485.676904,599616578434575962,48
17.342765,1776081485.676904,599616578434575962,50
17.350458,1776081485.676904,599616578434575962,50
17.358150,1776081485.676904,599616578434575962,52
17.365842,1776081485.676904,599616578434575962,54
17.373535,1776081485.676904,599616578434575962,52
17.381227,1776081485.676904,599616578434575962,52
17.388919,1776081485.676904,599616578434575962,50
17.396612,1776081485.676904,599616578434575962,45
17.404304,1776081485.676904,599616578434575962,48
17.412147,1776081486.217705,599616578996264838,48
17.419839,1776081486.217705,599616578996264838,50
17.427531,1776081486.217705,599616578996264838,48
17.435223,1776081486.217705,599616578996264838,50
17.442916,1776081486.217705,599616578996264838,50
17.450608,1776081486.217705,599616578996264838,48
17.458300,1776081486.217705,599616578996264838,52
17.465993,1776081486.217705,599616578996264838,54
17.473685,1776081486.217705,599616578996264838,52
17.481377,1776081486.217705,599616578996264838,54
17.489070,1776081486.217705,599616578996264838,50
17.496762,1776081486.217705,599616578996264838,50
17.504454,1776081486.217705,599616578996264838,54
17.512147,1776081486.217705,599616578996264838,50
17.519839,1776081486.217705,599616578996264838,52
17.527531,1776081486.217705,599616578996264838,54
17.535223,1776081486.217705,599616578996264838,52
17.542916,1776081486.217705,599616578996264838,54
17.550608,1776081486.217705,599616578996264838,52
17.558300,1776081486.217705,599616578996264838,52
17.565993,1776081486.217705,599616578996264838,52
17.573685,1776081486.217705,599616578996264838,52
17.581377,1776081486.217705,599616578996264838,54
17.589070,1776081486.217705,599616578996264838,52
17.596762,1776081486.217705,599616578996264838,54
17.604454,1776081486.217705,599616578996264838,57
17.612146,1776081486.217705,599616578996264838,52
17.619839,1776081486.217705,599616578996264838,59
17.627531,1776081486.217705,599616578996264838,57
17.635224,1776081486.217705,599616578996264838,50
17.642916,1776081486.217705,599616578996264838,57
17.650608,1776081486.217705,599616578996264838,54
17.658300,1776081486.217705,599616578996264838,52
17.665993,1776081486.217705,599616578996264838,50
17.673685,1776081486.217705,599616578996264838,43
17.681377,1776081486.217705,599616578996264838,45
17.689070,1776081486.217705,599616578996264838,45
17.696762,1776081486.217705,599616578996264838,43
17.704454,1776081486.217705,599616578996264838,43
17.712147,1776081486.217705,599616578996264838,43
17.719839,1776081486.217705,599616578996264838,45
17.727531,1776081486.217705,599616578996264838,45
17.735223,1776081486.217705,599616578996264838,45
17.742916,1776081486.217705,599616578996264838,48
17.750608,1776081486.217705,599616578996264838,43
17.758300,1776081486.217705,599616578996264838,41
17.765993,1776081486.217705,599616578996264838,38
17.773685,1776081486.217705,599616578996264838,43
17.781377,1776081486.217705,599616578996264838,48
17.789070,1776081486.217705,599616578996264838,45
17.796762,1776081486.217705,599616578996264838,66
17.804454,1776081486.217705,599616578996264838,114
17.812147,1776081486.217705,599616578996264838,130
17.819839,1776081486.217705,599616578996264838,98
17.827531,1776081486.217705,599616578996264838,38
17.835223,1776081486.217705,599616578996264838,2
17.842916,1776081486.217705,599616578996264838,6
17.850608,1776081486.217705,599616578996264838,13
17.858300,1776081486.217705,599616578996264838,13
17.865993,1776081486.217705,599616578996264838,18
17.873685,1776081486.217705,599616578996264838,22
17.881377,1776081486.217705,599616578996264838,6
17.889070,1776081486.217705,599616578996264838,91
17.896762,1776081486.217705,599616578996264838,194
17.904454,1776081486.217705,599616578996264838,20
