time,t_wall,t_device_ns,ecg
0.000000,1776080966.647898,599616059335267464,-182
0.007692,1776080966.647898,599616059335267464,249
0.015385,1776080966.647898,599616059335267464,1721
0.023077,1776080966.647898,599616059335267464,3288
0.030769,1776080966.647898,599616059335267464,3361
0.038461,1776080966.647898,599616059335267464,3011
0.046154,1776080966.647898,599616059335267464,3270
0.053846,1776080966.647898,599616059335267464,3272
0.061538,1776080966.647898,599616059335267464,3098
0.069231,1776080966.647898,599616059335267464,3334
0.076923,1776080966.647898,599616059335267464,3306
0.084615,1776080966.647898,599616059335267464,2991
0.092308,1776080966.647898,599616059335267464,3126
0.100000,1776080966.647898,599616059335267464,3247
0.107692,1776080966.647898,599616059335267464,3089
0.115385,1776080966.647898,599616059335267464,3059
0.123077,1776080966.647898,599616059335267464,3075
0.130769,1776080966.647898,599616059335267464,3007
0.138461,1776080966.647898,599616059335267464,2972
0.146154,1776080966.647898,599616059335267464,2970
0.153846,1776080966.647898,599616059335267464,2949
0.161538,1776080966.647898,599616059335267464,2954
0.169231,1776080966.647898,599616059335267464,2943
0.176923,1776080966.647898,599616059335267464,2856
0.184615,1776080966.647898,599616059335267464,2808
0.192308,1776080966.647898,599616059335267464,2853
0.200000,1776080966.647898,599616059335267464,2856
0.207692,1776080966.647898,599616059335267464,2757
0.215385,1776080966.647898,599616059335267464,2675
0.223077,1776080966.647898,599616059335267464,2682
0.230769,1776080966.647898,599616059335267464,2723
0.238461,1776080966.647898,599616059335267464,2675
0.246154,1776080966.647898,599616059335267464,2558
0.253846,1776080966.647898,599616059335267464,2515
0.261538,1776080966.647898,599616059335267464,2508
0.269231,1776080966.647898,599616059335267464,2472
0.276923,1776080966.647898,599616059335267464,2451
0.284615,1776080966.647898,599616059335267464,2453
0.292308,1776080966.647898,599616059335267464,2435
0.300000,1776080966.647898,599616059335267464,2405
0.307692,1776080966.647898,599616059335267464,2385
0.315385,1776080966.647898,599616059335267464,2364
0.323077,1776080966.647898,599616059335267464,2357
0.330769,1776080966.647898,599616059335267464,2366
0.338462,1776080966.647898,599616059335267464,2339
0.346154,1776080966.647898,599616059335267464,2279
0.353846,1776080966.647898,599616059335267464,2247
0.361538,1776080966.647898,599616059335267464,2231
0.369231,1776080966.647898,599616059335267464,2220
0.376923,1776080966.647898,599616059335267464,2206
0.384615,1776080966.647898,599616059335267464,2186
0.392308,1776080966.647898,599616059335267464,2161
0.400000,1776080966.647898,599616059335267464,2135
0.407692,1776080966.647898,599616059335267464,2110
0.415385,1776080966.647898,599616059335267464,2096
0.423077,1776080966.647898,599616059335267464,2090
0.430769,1776080966.647898,599616059335267464,2071
0.438462,1776080966.647898,599616059335267464,2078
0.446154,1776080966.647898,599616059335267464,2106
0.453846,1776080966.647898,599616059335267464,2053
0.461538,1776080966.647898,599616059335267464,1941
0.469231,1776080966.647898,599616059335267464,1930
0.476923,1776080966.647898,599616059335267464,1966
0.484615,1776080966.647898,599616059335267464,1920
0.492308,1776080966.647898,599616059335267464,1861
0.500000,1776080966.647898,599616059335267464,1856
0.507692,1776080966.647898,599616059335267464,1870
0.515385,1776080966.647898,599616059335267464,1847
0.523077,1776080966.647898,599616059335267464,1733
0.530769,1776080966.647898,599616059335267464,1607
0.538461,1776080966.647898,599616059335267464,1779
0.546154,1776080966.647898,599616059335267464,1872
0.553846,1776080966.647898,599616059335267464,1573
0.561689,1776080967.143365,599616059896956340,1612
0.569381,1776080967.143365,599616059896956340,1804
0.577073,1776080967.143365,599616059896956340,1657
0.584766,1776080967.143365,599616059896956340,1589
0.592458,1776080967.143365,599616059896956340,1660
0.600150,1776080967.143365,599616059896956340,1630
0.607843,1776080967.143365,599616059896956340,1580
0.615535,1776080967.143365,599616059896956340,1587
0.623227,1776080967.143365,599616059896956340,1580
0.630920,1776080967.143365,599616059896956340,1545
0.638612,1776080967.143365,599616059896956340,1532
0.646304,1776080967.143365,599616059896956340,1525
0.653997,1776080967.143365,599616059896956340,1509
0.661689,1776080967.143365,599616059896956340,1516
0.669381,1776080967.143365,599616059896956340,1511
0.677073,1776080967.143365,599616059896956340,1445
0.684766,1776080967.143365,599616059896956340,1401
0.692458,1776080967.143365,599616059896956340,1413
0.700150,1776080967.143365,599616059896956340,1399
0.707843,1776080967.143365,599616059896956340,1330
0.715535,1776080967.143365,599616059896956340,1257
0.723227,1776080967.143365,599616059896956340,1234
0.730920,1776080967.143365,599616059896956340,1225
0.738612,1776080967.143365,599616059896956340,1193
0.746304,1776080967.143365,599616059896956340,1170
0.753997,1776080967.143365,599616059896956340,1166
0.761689,1776080967.143365,599616059896956340,1152
0.769381,1776080967.143365,599616059896956340,1134
0.777074,1776080967.143365,599616059896956340,1129
0.784766,1776080967.143365,599616059896956340,1118
0.792458,1776080967.143365,599616059896956340,1090
0.800150,1776080967.143365,599616059896956340,1074
0.807843,1776080967.143365,599616059896956340,1070
0.815535,1776080967.143365,599616059896956340,1049
0.823227,1776080967.143365,599616059896956340,1035
0.830920,1776080967.143365,599616059896956340,1024
0.838612,1776080967.143365,599616059896956340,1008
0.846304,1776080967.143365,599616059896956340,992
0.853997,1776080967.143365,599616059896956340,978
0.861689,1776080967.143365,599616059896956340,965
0.869381,1776080967.143365,599616059896956340,958
0.877074,1776080967.143365,599616059896956340,939
0.884766,1776080967.143365,599616059896956340,910
0.892458,1776080967.143365,599616059896956340,896
0.900150,1776080967.143365,599616059896956340,889
0.907843,1776080967.143365,599616059896956340,871
0.915535,1776080967.143365,599616059896956340,857
0.923227,1776080967.143365,599616059896956340,846
0.930920,1776080967.143365,599616059896956340,832
0.938612,1776080967.143365,599616059896956340,823
0.946304,1776080967.143365,599616059896956340,818
0.953997,1776080967.143365,599616059896956340,814
0.961689,1776080967.143365,599616059896956340,846
0.969381,1776080967.143365,599616059896956340,873
0.977073,1776080967.143365,599616059896956340,786
0.984766,1776080967.143365,599616059896956340,686
0.992458,1776080967.143365,599616059896956340,704
1.000150,1776080967.143365,599616059896956340,724
1.007843,1776080967.143365,599616059896956340,690
1.015535,1776080967.143365,599616059896956340,683
1.023227,1776080967.143365,599616059896956340,690
1.030920,1776080967.143365,599616059896956340,674
1.038612,1776080967.143365,599616059896956340,665
1.046304,1776080967.143365,599616059896956340,592
1.053997,1776080967.143365,599616059896956340,464
1.061689,1776080967.143365,599616059896956340,676
1.069381,1776080967.143365,599616059896956340,830
1.077073,1776080967.143365,599616059896956340,471
1.084766,1776080967.143365,599616059896956340,482
1.092458,1776080967.143365,599616059896956340,736
1.100150,1776080967.143365,599616059896956340,592
1.107843,1776080967.143365,599616059896956340,507
1.115535,1776080967.143365,599616059896956340,599
1.123378,1776080967.729667,599616060458645216,578
1.131070,1776080967.729667,599616060458645216,528
1.138762,1776080967.729667,599616060458645216,553
1.146455,1776080967.729667,599616060458645216,551
1.154147,1776080967.729667,599616060458645216,528
1.161839,1776080967.729667,599616060458645216,530
1.169532,1776080967.729667,599616060458645216,535
1.177224,1776080967.729667,599616060458645216,521
1.184916,1776080967.729667,599616060458645216,505
1.192609,1776080967.729667,599616060458645216,491
1.200301,1776080967.729667,599616060458645216,473
1.207993,1776080967.729667,599616060458645216,443
1.215685,1776080967.729667,599616060458645216,420
1.223378,1776080967.729667,599616060458645216,455
1.231070,1776080967.729667,599616060458645216,475
1.238762,1776080967.729667,599616060458645216,388
1.246455,1776080967.729667,599616060458645216,331
1.254147,1776080967.729667,599616060458645216,365
1.261839,1776080967.729667,599616060458645216,368
1.269532,1776080967.729667,599616060458645216,340
1.277224,1776080967.729667,599616060458645216,340
1.284916,1776080967.729667,599616060458645216,340
1.292608,1776080967.729667,599616060458645216,331
1.300301,1776080967.729667,599616060458645216,331
1.307993,1776080967.729667,599616060458645216,333
1.315686,1776080967.729667,599616060458645216,327
1.323378,1776080967.729667,599616060458645216,320
1.331070,1776080967.729667,599616060458645216,313
1.338762,1776080967.729667,599616060458645216,308
1.346455,1776080967.729667,599616060458645216,306
1.354147,1776080967.729667,599616060458645216,301
1.361839,1776080967.729667,599616060458645216,299
1.369532,1776080967.729667,599616060458645216,290
1.377224,1776080967.729667,599616060458645216,278
1.384916,1776080967.729667,599616060458645216,276
1.392609,1776080967.729667,599616060458645216,274
1.400301,1776080967.729667,599616060458645216,269
1.407993,1776080967.729667,599616060458645216,262
1.415685,1776080967.729667,599616060458645216,251
1.423378,1776080967.729667,599616060458645216,242
1.431070,1776080967.729667,599616060458645216,237
1.438762,1776080967.729667,599616060458645216,237
1.446455,1776080967.729667,599616060458645216,233
1.454147,1776080967.729667,599616060458645216,228
1.461839,1776080967.729667,599616060458645216,224
1.469532,1776080967.729667,599616060458645216,214
1.477224,1776080967.729667,599616060458645216,208
1.484916,1776080967.729667,599616060458645216,205
1.492609,1776080967.729667,599616060458645216,203
1.500301,1776080967.729667,599616060458645216,196
1.507993,1776080967.729667,599616060458645216,187
1.515685,1776080967.729667,599616060458645216,182
1.523378,1776080967.729667,599616060458645216,182
1.531070,1776080967.729667,599616060458645216,182
1.538762,1776080967.729667,599616060458645216,173
1.546455,1776080967.729667,599616060458645216,162
1.554147,1776080967.729667,599616060458645216,153
1.561839,1776080967.729667,599616060458645216,148
1.569532,1776080967.729667,599616060458645216,148
1.577224,1776080967.729667,599616060458645216,146
1.584916,1776080967.729667,599616060458645216,144
1.592609,1776080967.729667,599616060458645216,139
1.600301,1776080967.729667,599616060458645216,139
1.607993,1776080967.729667,599616060458645216,134
1.615685,1776080967.729667,599616060458645216,132
1.623378,1776080967.729667,599616060458645216,134
1.631070,1776080967.729667,599616060458645216,150
1.638762,1776080967.729667,599616060458645216,203
1.646455,1776080967.729667,599616060458645216,256
1.654147,1776080967.729667,599616060458645216,226
1.661839,1776080967.729667,599616060458645216,116
1.669532,1776080967.729667,599616060458645216,41
1.677224,1776080967.729667,599616060458645216,57
1.685067,1776080968.267990,599616061020334092,75
1.692759,1776080968.267990,599616061020334092,57
1.700451,1776080968.267990,599616061020334092,59
1.708144,1776080968.267990,599616061020334092,73
1.715836,1776080968.267990,599616061020334092,73
1.723528,1776080968.267990,599616061020334092,25
1.731220,1776080968.267990,599616061020334092,-155
1.738913,1776080968.267990,599616061020334092,9
1.746605,1776080968.267990,599616061020334092,347
1.754297,1776080968.267990,599616061020334092,11
1.761990,1776080968.267990,599616061020334092,-162
1.769682,1776080968.267990,599616061020334092,164
1.777374,1776080968.267990,599616061020334092,116
1.785067,1776080968.267990,599616061020334092,-27
1.792759,1776080968.267990,599616061020334092,75
1.800451,1776080968.267990,599616061020334092,102
1.808144,1776080968.267990,599616061020334092,45
1.815836,1776080968.267990,599616061020334092,64
1.823528,1776080968.267990,599616061020334092,84
1.831221,1776080968.267990,599616061020334092,66
1.838913,1776080968.267990,599616061020334092,64
1.846605,1776080968.267990,599616061020334092,77
1.854297,1776080968.267990,599616061020334092,77
1.861990,1776080968.267990,599616061020334092,73
1.869682,1776080968.267990,599616061020334092,75
1.877374,1776080968.267990,599616061020334092,73
1.885067,1776080968.267990,599616061020334092,59
1.892759,1776080968.267990,599616061020334092,22
1.900451,1776080968.267990,599616061020334092,27
1.908144,1776080968.267990,599616061020334092,98
1.915836,1776080968.267990,599616061020334092,96
1.923528,1776080968.267990,599616061020334092,11
1.931221,1776080968.267990,599616061020334092,6
1.938913,1776080968.267990,599616061020334092,43
1.946605,1776080968.267990,599616061020334092,27
1.954297,1776080968.267990,599616061020334092,16
1.961990,1776080968.267990,599616061020334092,22
1.969682,1776080968.267990,599616061020334092,16
1.977374,1776080968.267990,599616061020334092,11
1.985067,1776080968.267990,599616061020334092,18
1.992759,1776080968.267990,599616061020334092,22
2.000451,1776080968.267990,599616061020334092,13
2.008144,1776080968.267990,599616061020334092,9
2.015836,1776080968.267990,599616061020334092,18
2.023528,1776080968.267990,599616061020334092,20
2.031221,1776080968.267990,599616061020334092,13
2.038913,1776080968.267990,599616061020334092,16
2.046605,1776080968.267990,599616061020334092,13
2.054297,1776080968.267990,599616061020334092,11
2.061990,1776080968.267990,599616061020334092,11
2.069682,1776080968.267990,599616061020334092,11
2.077374,1776080968.267990,599616061020334092,9
2.085067,1776080968.267990,599616061020334092,6
2.092759,1776080968.267990,599616061020334092,0
2.100451,1776080968.267990,599616061020334092,-4
2.108144,1776080968.267990,599616061020334092,-2
2.115836,1776080968.267990,599616061020334092,-4
2.123528,1776080968.267990,599616061020334092,-6
2.131220,1776080968.267990,599616061020334092,-6
2.138913,1776080968.267990,599616061020334092,-4
2.146605,1776080968.267990,599616061020334092,-4
2.154297,1776080968.267990,599616061020334092,-9
2.161990,1776080968.267990,599616061020334092,-6
2.169682,1776080968.267990,599616061020334092,-4
2.177374,1776080968.267990,599616061020334092,-6
2.185067,1776080968.267990,599616061020334092,-13
2.192759,1776080968.267990,599616061020334092,-22
2.200451,1776080968.267990,599616061020334092,-25
2.208144,1776080968.267990,599616061020334092,-29
2.215836,1776080968.267990,599616061020334092,-32
2.223528,1776080968.267990,599616061020334092,-32
2.231220,1776080968.267990,599616061020334092,-34
2.238913,1776080968.267990,599616061020334092,-34
2.246755,1776080968.853415,599616061582022968,-29
2.254448,1776080968.853415,599616061582022968,-32
2.262140,1776080968.853415,599616061582022968,-38
2.269832,1776080968.853415,599616061582022968,-45
2.277525,1776080968.853415,599616061582022968,-43
2.285217,1776080968.853415,599616061582022968,-43
2.292909,1776080968.853415,599616061582022968,-43
2.300602,1776080968.853415,599616061582022968,-43
2.308294,1776080968.853415,599616061582022968,-43
2.315986,1776080968.853415,599616061582022968,-50
2.323678,1776080968.853415,599616061582022968,-50
2.331371,1776080968.853415,599616061582022968,-45
2.339063,1776080968.853415,599616061582022968,-45
2.346756,1776080968.853415,599616061582022968,-48
2.354448,1776080968.853415,599616061582022968,-45
2.362140,1776080968.853415,599616061582022968,-43
2.369832,1776080968.853415,599616061582022968,-41
2.377525,1776080968.853415,599616061582022968,-41
2.385217,1776080968.853415,599616061582022968,-41
2.392909,1776080968.853415,599616061582022968,-38
2.400602,1776080968.853415,599616061582022968,-38
2.408294,1776080968.853415,599616061582022968,-43
2.415986,1776080968.853415,599616061582022968,-41
2.423679,1776080968.853415,599616061582022968,-41
2.431371,1776080968.853415,599616061582022968,-45
2.439063,1776080968.853415,599616061582022968,-48
2.446755,1776080968.853415,599616061582022968,-48
2.454448,1776080968.853415,599616061582022968,-54
2.462140,1776080968.853415,599616061582022968,-57
2.469832,1776080968.853415,599616061582022968,-50
2.477525,1776080968.853415,599616061582022968,-52
2.485217,1776080968.853415,599616061582022968,-61
2.492909,1776080968.853415,599616061582022968,-45
2.500602,1776080968.853415,599616061582022968,18
2.508294,1776080968.853415,599616061582022968,59
2.515986,1776080968.853415,599616061582022968,-13
2.523679,1776080968.853415,599616061582022968,-121
2.531371,1776080968.853415,599616061582022968,-130
2.539063,1776080968.853415,599616061582022968,-84
2.546755,1776080968.853415,599616061582022968,-86
2.554448,1776080968.853415,599616061582022968,-98
2.562140,1776080968.853415,599616061582022968,-84
2.569832,1776080968.853415,599616061582022968,-77
2.577525,1776080968.853415,599616061582022968,-77
2.585217,1776080968.853415,599616061582022968,-137
2.592909,1776080968.853415,599616061582022968,-262
2.600602,1776080968.853415,599616061582022968,-38
2.608294,1776080968.853415,599616061582022968,171
2.615986,1776080968.853415,599616061582022968,-212
2.623679,1776080968.853415,599616061582022968,-242
2.631371,1776080968.853415,599616061582022968,54
2.639063,1776080968.853415,599616061582022968,-59
2.646755,1776080968.853415,599616061582022968,-146
2.654448,1776080968.853415,599616061582022968,-36
2.662140,1776080968.853415,599616061582022968,-36
2.669832,1776080968.853415,599616061582022968,-82
2.677525,1776080968.853415,599616061582022968,-54
2.685217,1776080968.853415,599616061582022968,-50
2.692909,1776080968.853415,599616061582022968,-75
2.700602,1776080968.853415,599616061582022968,-75
2.708294,1776080968.853415,599616061582022968,-66
2.715986,1776080968.853415,599616061582022968,-68
2.723678,1776080968.853415,599616061582022968,-66
2.731371,1776080968.853415,599616061582022968,-57
2.739063,1776080968.853415,599616061582022968,-57
2.746755,1776080968.853415,599616061582022968,-75
2.754448,1776080968.853415,599616061582022968,-116
2.762140,1776080968.853415,599616061582022968,-100
2.769832,1776080968.853415,599616061582022968,-9
2.777525,1776080968.853415,599616061582022968,-2
2.785217,1776080968.853415,599616061582022968,-80
2.792909,1776080968.853415,599616061582022968,-80
2.800602,1776080968.853415,599616061582022968,-48
2.808475,1776080969.352675,599616062143742362,-70
2.816167,1776080969.352675,599616062143742362,-80
2.823859,1776080969.352675,599616062143742362,-66
2.831552,1776080969.352675,599616062143742362,-66
2.839244,1776080969.352675,599616062143742362,-73
2.846936,1776080969.352675,599616062143742362,-66
2.854629,1776080969.352675,599616062143742362,-59
2.862321,1776080969.352675,599616062143742362,-61
2.870013,1776080969.352675,599616062143742362,-64
2.877706,1776080969.352675,599616062143742362,-61
2.885398,1776080969.352675,599616062143742362,-61
2.893090,1776080969.352675,599616062143742362,-68
2.900783,1776080969.352675,599616062143742362,-70
2.908475,1776080969.352675,599616062143742362,-73
2.916167,1776080969.352675,599616062143742362,-70
2.923859,1776080969.352675,599616062143742362,-68
2.931552,1776080969.352675,599616062143742362,-68
2.939244,1776080969.352675,599616062143742362,-75
2.946936,1776080969.352675,599616062143742362,-75
2.954629,1776080969.352675,599616062143742362,-73
2.962321,1776080969.352675,599616062143742362,-70
2.970013,1776080969.352675,599616062143742362,-73
2.977706,1776080969.352675,599616062143742362,-77
2.985398,1776080969.352675,599616062143742362,-82
2.993090,1776080969.352675,599616062143742362,-86
3.000783,1776080969.352675,599616062143742362,-82
3.008475,1776080969.352675,599616062143742362,-77
3.016167,1776080969.352675,599616062143742362,-80
3.023860,1776080969.352675,599616062143742362,-84
3.031552,1776080969.352675,599616062143742362,-80
3.039244,1776080969.352675,599616062143742362,-82
3.046936,1776080969.352675,599616062143742362,-82
3.054629,1776080969.352675,599616062143742362,-80
3.062321,1776080969.352675,599616062143742362,-77
3.070013,1776080969.352675,599616062143742362,-80
3.077706,1776080969.352675,599616062143742362,-80
3.085398,1776080969.352675,599616062143742362,-77
3.093090,1776080969.352675,599616062143742362,-75
3.100783,1776080969.352675,599616062143742362,-73
3.108475,1776080969.352675,599616062143742362,-73
3.116167,1776080969.352675,599616062143742362,-75
3.123860,1776080969.352675,599616062143742362,-75
3.131552,1776080969.352675,599616062143742362,-75
3.139244,1776080969.352675,599616062143742362,-75
3.146936,1776080969.352675,599616062143742362,-73
3.154629,1776080969.352675,599616062143742362,-70
3.162321,1776080969.352675,599616062143742362,-73
3.170013,1776080969.352675,599616062143742362,-80
3.177706,1776080969.352675,599616062143742362,-80
3.185398,1776080969.352675,599616062143742362,-86
3.193090,1776080969.352675,599616062143742362,-102
3.200783,1776080969.352675,599616062143742362,-107
3.208475,1776080969.352675,599616062143742362,-102
3.216167,1776080969.352675,599616062143742362,-107
3.223859,1776080969.352675,599616062143742362,-109
3.231552,1776080969.352675,599616062143742362,-102
3.239244,1776080969.352675,599616062143742362,-102
3.246936,1776080969.352675,599616062143742362,-102
3.254629,1776080969.352675,599616062143742362,-98
3.262321,1776080969.352675,599616062143742362,-98
3.270013,1776080969.352675,599616062143742362,-100
3.277706,1776080969.352675,599616062143742362,-93
3.285398,1776080969.352675,599616062143742362,-89
3.293090,1776080969.352675,599616062143742362,-89
3.300783,1776080969.352675,599616062143742362,-93
3.308475,1776080969.352675,599616062143742362,-98
3.316167,1776080969.352675,599616062143742362,-91
3.323859,1776080969.352675,599616062143742362,-80
3.331552,1776080969.352675,599616062143742362,-45
3.339244,1776080969.352675,599616062143742362,20
3.346936,1776080969.352675,599616062143742362,20
3.354629,1776080969.352675,599616062143742362,-84
3.362321,1776080969.352675,599616062143742362,-162
3.370164,1776080969.977257,599616062705431240,-128
3.377856,1776080969.977257,599616062705431240,-98
3.385548,1776080969.977257,599616062705431240,-118
3.393241,1776080969.977257,599616062705431240,-121
3.400933,1776080969.977257,599616062705431240,-105
3.408625,1776080969.977257,599616062705431240,-102
3.416318,1776080969.977257,599616062705431240,-109
3.424010,1776080969.977257,599616062705431240,-240
3.431702,1776080969.977257,599616062705431240,-237
3.439395,1776080969.977257,599616062705431240,59
3.447087,1776080969.977257,599616062705431240,-38
3.454779,1776080969.977257,599616062705431240,-288
3.462472,1776080969.977257,599616062705431240,-68
3.470164,1776080969.977257,599616062705431240,22
3.477856,1776080969.977257,599616062705431240,-130
3.485548,1776080969.977257,599616062705431240,-100
3.493241,1776080969.977257,599616062705431240,-36
3.500933,1776080969.977257,599616062705431240,-80
3.508625,1776080969.977257,599616062705431240,-84
3.516318,1776080969.977257,599616062705431240,-45
3.524010,1776080969.977257,599616062705431240,-50
3.531702,1776080969.977257,599616062705431240,-64
3.539395,1776080969.977257,599616062705431240,-54
3.547087,1776080969.977257,599616062705431240,-48
3.554779,1776080969.977257,599616062705431240,-45
3.562472,1776080969.977257,599616062705431240,-38
3.570164,1776080969.977257,599616062705431240,-43
3.577856,1776080969.977257,599616062705431240,-54
3.585549,1776080969.977257,599616062705431240,-77
3.593241,1776080969.977257,599616062705431240,-100
3.600933,1776080969.977257,599616062705431240,-48
3.608625,1776080969.977257,599616062705431240,16
3.616318,1776080969.977257,599616062705431240,-36
3.624010,1776080969.977257,599616062705431240,-91
3.631702,1776080969.977257,599616062705431240,-57
3.639395,1776080969.977257,599616062705431240,-43
3.647087,1776080969.977257,599616062705431240,-70
3.654779,1776080969.977257,599616062705431240,-70
3.662472,1776080969.977257,599616062705431240,-68
3.670164,1776080969.977257,599616062705431240,-82
3.677856,1776080969.977257,599616062705431240,-82
3.685549,1776080969.977257,599616062705431240,-75
3.693241,1776080969.977257,599616062705431240,-80
3.700933,1776080969.977257,599616062705431240,-91
3.708625,1776080969.977257,599616062705431240,-93
3.716318,1776080969.977257,599616062705431240,-86
3.724010,1776080969.977257,599616062705431240,-84
3.731702,1776080969.977257,599616062705431240,-86
3.739395,1776080969.977257,599616062705431240,-84
3.747087,1776080969.977257,599616062705431240,-82
3.754779,1776080969.977257,599616062705431240,-80
3.762472,1776080969.977257,599616062705431240,-80
3.770164,1776080969.977257,599616062705431240,-80
3.777856,1776080969.977257,599616062705431240,-75
3.785548,1776080969.977257,599616062705431240,-70
3.793241,1776080969.977257,599616062705431240,-73
3.800933,1776080969.977257,599616062705431240,-73
3.808625,1776080969.977257,599616062705431240,-73
3.816318,1776080969.977257,599616062705431240,-70
3.824010,1776080969.977257,599616062705431240,-70
3.831702,1776080969.977257,599616062705431240,-73
3.839395,1776080969.977257,599616062705431240,-77
3.847087,1776080969.977257,599616062705431240,-80
3.854779,1776080969.977257,599616062705431240,-77
3.862472,1776080969.977257,599616062705431240,-70
3.870164,1776080969.977257,599616062705431240,-68
3.877856,1776080969.977257,599616062705431240,-68
3.885548,1776080969.977257,599616062705431240,-64
3.893241,1776080969.977257,599616062705431240,-66
3.900933,1776080969.977257,599616062705431240,-68
3.908625,1776080969.977257,599616062705431240,-68
3.916318,1776080969.977257,599616062705431240,-68
3.924010,1776080969.977257,599616062705431240,-73
3.931873,1776080970.520890,599616063267140462,-77
3.939565,1776080970.520890,599616063267140462,-75
3.947258,1776080970.520890,599616063267140462,-73
3.954950,1776080970.520890,599616063267140462,-73
3.962642,1776080970.520890,599616063267140462,-77
3.970335,1776080970.520890,599616063267140462,-75
3.978027,1776080970.520890,599616063267140462,-73
3.985719,1776080970.520890,599616063267140462,-75
3.993412,1776080970.520890,599616063267140462,-75
4.001104,1776080970.520890,599616063267140462,-77
4.008796,1776080970.520890,599616063267140462,-80
4.016488,1776080970.520890,599616063267140462,-89
4.024181,1776080970.520890,599616063267140462,-105
4.031873,1776080970.520890,599616063267140462,-109
4.039565,1776080970.520890,599616063267140462,-105
4.047258,1776080970.520890,599616063267140462,-107
4.054950,1776080970.520890,599616063267140462,-109
4.062642,1776080970.520890,599616063267140462,-98
4.070335,1776080970.520890,599616063267140462,-54
4.078027,1776080970.520890,599616063267140462,0
4.085719,1776080970.520890,599616063267140462,-41
4.093412,1776080970.520890,599616063267140462,-155
4.101104,1776080970.520890,599616063267140462,-173
4.108796,1776080970.520890,599616063267140462,-123
4.116488,1776080970.520890,599616063267140462,-123
4.124181,1776080970.520890,599616063267140462,-137
4.131873,1776080970.520890,599616063267140462,-125
4.139565,1776080970.520890,599616063267140462,-114
4.147258,1776080970.520890,599616063267140462,-114
4.154950,1776080970.520890,599616063267140462,-187
4.162642,1776080970.520890,599616063267140462,-299
4.170335,1776080970.520890,599616063267140462,-64
4.178027,1776080970.520890,599616063267140462,70
4.185719,1776080970.520890,599616063267140462,-278
4.193411,1776080970.520890,599616063267140462,-235
4.201104,1776080970.520890,599616063267140462,11
4.208796,1776080970.520890,599616063267140462,-132
4.216488,1776080970.520890,599616063267140462,-187
4.224181,1776080970.520890,599616063267140462,-82
4.231873,1776080970.520890,599616063267140462,-102
4.239565,1776080970.520890,599616063267140462,-144
4.247258,1776080970.520890,599616063267140462,-116
4.254950,1776080970.520890,599616063267140462,-112
4.262642,1776080970.520890,599616063267140462,-123
4.270335,1776080970.520890,599616063267140462,-112
4.278027,1776080970.520890,599616063267140462,-107
4.285719,1776080970.520890,599616063267140462,-112
4.293411,1776080970.520890,599616063267140462,-105
4.301104,1776080970.520890,599616063267140462,-96
4.308796,1776080970.520890,599616063267140462,-100
4.316488,1776080970.520890,599616063267140462,-121
4.324181,1776080970.520890,599616063267140462,-150
4.331873,1776080970.520890,599616063267140462,-123
4.339565,1776080970.520890,599616063267140462,-45
4.347258,1776080970.520890,599616063267140462,-66
4.354950,1776080970.520890,599616063267140462,-134
4.362642,1776080970.520890,599616063267140462,-125
4.370335,1776080970.520890,599616063267140462,-109
4.378027,1776080970.520890,599616063267140462,-139
4.385719,1776080970.520890,599616063267140462,-148
4.393412,1776080970.520890,599616063267140462,-134
4.401104,1776080970.520890,599616063267140462,-137
4.408796,1776080970.520890,599616063267140462,-139
4.416488,1776080970.520890,599616063267140462,-139
4.424181,1776080970.520890,599616063267140462,-141
4.431873,1776080970.520890,599616063267140462,-144
4.439565,1776080970.520890,599616063267140462,-139
4.447258,1776080970.520890,599616063267140462,-134
4.454950,1776080970.520890,599616063267140462,-132
4.462642,1776080970.520890,599616063267140462,-132
4.470335,1776080970.520890,599616063267140462,-130
4.478027,1776080970.520890,599616063267140462,-128
4.485719,1776080970.520890,599616063267140462,-123
4.493572,1776080971.059783,599616063828839510,-116
4.501264,1776080971.059783,599616063828839510,-114
4.508957,1776080971.059783,599616063828839510,-112
4.516649,1776080971.059783,599616063828839510,-112
4.524341,1776080971.059783,599616063828839510,-109
4.532034,1776080971.059783,599616063828839510,-107
4.539726,1776080971.059783,599616063828839510,-109
4.547418,1776080971.059783,599616063828839510,-114
4.555111,1776080971.059783,599616063828839510,-121
4.562803,1776080971.059783,599616063828839510,-130
4.570495,1776080971.059783,599616063828839510,-132
4.578187,1776080971.059783,599616063828839510,-128
4.585880,1776080971.059783,599616063828839510,-128
4.593572,1776080971.059783,599616063828839510,-130
4.601264,1776080971.059783,599616063828839510,-128
4.608957,1776080971.059783,599616063828839510,-123
4.616649,1776080971.059783,599616063828839510,-121
4.624341,1776080971.059783,599616063828839510,-116
4.632034,1776080971.059783,599616063828839510,-112
4.639726,1776080971.059783,599616063828839510,-112
4.647418,1776080971.059783,599616063828839510,-112
4.655111,1776080971.059783,599616063828839510,-109
4.662803,1776080971.059783,599616063828839510,-114
4.670495,1776080971.059783,599616063828839510,-114
4.678187,1776080971.059783,599616063828839510,-112
4.685880,1776080971.059783,599616063828839510,-109
4.693572,1776080971.059783,599616063828839510,-105
4.701264,1776080971.059783,599616063828839510,-98
4.708957,1776080971.059783,599616063828839510,-59
4.716649,1776080971.059783,599616063828839510,-13
4.724341,1776080971.059783,599616063828839510,-68
4.732034,1776080971.059783,599616063828839510,-185
4.739726,1776080971.059783,599616063828839510,-192
4.747418,1776080971.059783,599616063828839510,-139
4.755111,1776080971.059783,599616063828839510,-150
4.762803,1776080971.059783,599616063828839510,-160
4.770495,1776080971.059783,599616063828839510,-139
4.778188,1776080971.059783,599616063828839510,-134
4.785880,1776080971.059783,599616063828839510,-137
4.793572,1776080971.059783,599616063828839510,-210
4.801264,1776080971.059783,599616063828839510,-281
4.808957,1776080971.059783,599616063828839510,-68
4.816649,1776080971.059783,599616063828839510,-4
4.824341,1776080971.059783,599616063828839510,-269
4.832034,1776080971.059783,599616063828839510,-171
4.839726,1776080971.059783,599616063828839510,11
4.847418,1776080971.059783,599616063828839510,-112
4.855111,1776080971.059783,599616063828839510,-130
4.862803,1776080971.059783,599616063828839510,-50
4.870495,1776080971.059783,599616063828839510,-80
4.878187,1776080971.059783,599616063828839510,-102
4.885880,1776080971.059783,599616063828839510,-73
4.893572,1776080971.059783,599616063828839510,-68
4.901264,1776080971.059783,599616063828839510,-77
4.908957,1776080971.059783,599616063828839510,-68
4.916649,1776080971.059783,599616063828839510,-70
4.924341,1776080971.059783,599616063828839510,-77
4.932034,1776080971.059783,599616063828839510,-70
4.939726,1776080971.059783,599616063828839510,-59
4.947418,1776080971.059783,599616063828839510,-57
4.955111,1776080971.059783,599616063828839510,-75
4.962803,1776080971.059783,599616063828839510,-98
4.970495,1776080971.059783,599616063828839510,-64
4.978187,1776080971.059783,599616063828839510,-25
4.985880,1776080971.059783,599616063828839510,-84
4.993572,1776080971.059783,599616063828839510,-134
5.001264,1776080971.059783,599616063828839510,-105
5.008957,1776080971.059783,599616063828839510,-96
5.016649,1776080971.059783,599616063828839510,-118
5.024341,1776080971.059783,599616063828839510,-109
5.032034,1776080971.059783,599616063828839510,-100
5.039726,1776080971.059783,599616063828839510,-105
5.047418,1776080971.059783,599616063828839510,-102
5.055291,1776080971.642805,599616064390558904,-100
5.062984,1776080971.642805,599616064390558904,-102
5.070676,1776080971.642805,599616064390558904,-98
5.078368,1776080971.642805,599616064390558904,-93
5.086061,1776080971.642805,599616064390558904,-93
5.093753,1776080971.642805,599616064390558904,-96
5.101445,1776080971.642805,599616064390558904,-107
5.109138,1776080971.642805,599616064390558904,-114
5.116830,1776080971.642805,599616064390558904,-112
5.124522,1776080971.642805,599616064390558904,-109
5.132214,1776080971.642805,599616064390558904,-109
5.139907,1776080971.642805,599616064390558904,-107
5.147599,1776080971.642805,599616064390558904,-109
5.155291,1776080971.642805,599616064390558904,-109
5.162984,1776080971.642805,599616064390558904,-107
5.170676,1776080971.642805,599616064390558904,-105
5.178368,1776080971.642805,599616064390558904,-102
5.186061,1776080971.642805,599616064390558904,-100
5.193753,1776080971.642805,599616064390558904,-100
5.201445,1776080971.642805,599616064390558904,-105
5.209138,1776080971.642805,599616064390558904,-105
5.216830,1776080971.642805,599616064390558904,-107
5.224522,1776080971.642805,599616064390558904,-112
5.232214,1776080971.642805,599616064390558904,-98
5.239907,1776080971.642805,599616064390558904,-54
5.247599,1776080971.642805,599616064390558904,-38
5.255291,1776080971.642805,599616064390558904,-118
5.262984,1776080971.642805,599616064390558904,-169
5.270676,1776080971.642805,599616064390558904,-134
5.278368,1776080971.642805,599616064390558904,-130
5.286061,1776080971.642805,599616064390558904,-157
5.293753,1776080971.642805,599616064390558904,-141
5.301445,1776080971.642805,599616064390558904,-118
5.309138,1776080971.642805,599616064390558904,-123
5.316830,1776080971.642805,599616064390558904,-157
5.324522,1776080971.642805,599616064390558904,-251
5.332214,1776080971.642805,599616064390558904,-125
5.339907,1776080971.642805,599616064390558904,6
5.347599,1776080971.642805,599616064390558904,-226
5.355291,1776080971.642805,599616064390558904,-196
5.362984,1776080971.642805,599616064390558904,16
5.370676,1776080971.642805,599616064390558904,-86
5.378368,1776080971.642805,599616064390558904,-141
5.386061,1776080971.642805,599616064390558904,-61
5.393753,1776080971.642805,599616064390558904,-75
5.401445,1776080971.642805,599616064390558904,-116
5.409137,1776080971.642805,599616064390558904,-96
5.416830,1776080971.642805,599616064390558904,-93
5.424522,1776080971.642805,599616064390558904,-109
5.432214,1776080971.642805,599616064390558904,-102
5.439907,1776080971.642805,599616064390558904,-89
5.447599,1776080971.642805,599616064390558904,-86
5.455291,1776080971.642805,599616064390558904,-84
5.462984,1776080971.642805,599616064390558904,-77
5.470676,1776080971.642805,599616064390558904,-77
5.478368,1776080971.642805,599616064390558904,-84
5.486061,1776080971.642805,599616064390558904,-91
5.493753,1776080971.642805,599616064390558904,-68
5.501445,1776080971.642805,599616064390558904,-64
5.509138,1776080971.642805,599616064390558904,-141
5.516830,1776080971.642805,599616064390558904,-185
5.524522,1776080971.642805,599616064390558904,-150
5.532214,1776080971.642805,599616064390558904,-139
5.539907,1776080971.642805,599616064390558904,-150
5.547599,1776080971.642805,599616064390558904,-144
5.555291,1776080971.642805,599616064390558904,-139
5.562984,1776080971.642805,599616064390558904,-144
5.570676,1776080971.642805,599616064390558904,-141
5.578368,1776080971.642805,599616064390558904,-132
5.586061,1776080971.642805,599616064390558904,-130
5.593753,1776080971.642805,599616064390558904,-132
5.601445,1776080971.642805,599616064390558904,-144
5.609138,1776080971.642805,599616064390558904,-146
5.616980,1776080972.229361,599616064952247780,-137
5.624673,1776080972.229361,599616064952247780,-132
5.632365,1776080972.229361,599616064952247780,-130
5.640057,1776080972.229361,599616064952247780,-128
5.647750,1776080972.229361,599616064952247780,-130
5.655442,1776080972.229361,599616064952247780,-134
5.663134,1776080972.229361,599616064952247780,-128
5.670827,1776080972.229361,599616064952247780,-123
5.678519,1776080972.229361,599616064952247780,-125
5.686211,1776080972.229361,599616064952247780,-132
5.693903,1776080972.229361,599616064952247780,-130
5.701596,1776080972.229361,599616064952247780,-128
5.709288,1776080972.229361,599616064952247780,-118
5.716980,1776080972.229361,599616064952247780,-80
5.724673,1776080972.229361,599616064952247780,-34
5.732365,1776080972.229361,599616064952247780,-84
5.740057,1776080972.229361,599616064952247780,-182
5.747750,1776080972.229361,599616064952247780,-176
5.755442,1776080972.229361,599616064952247780,-130
5.763134,1776080972.229361,599616064952247780,-141
5.770827,1776080972.229361,599616064952247780,-150
5.778519,1776080972.229361,599616064952247780,-141
5.786211,1776080972.229361,599616064952247780,-139
5.793903,1776080972.229361,599616064952247780,-134
5.801596,1776080972.229361,599616064952247780,-214
5.809288,1776080972.229361,599616064952247780,-242
5.816980,1776080972.229361,599616064952247780,-4
5.824673,1776080972.229361,599616064952247780,-25
5.832365,1776080972.229361,599616064952247780,-292
5.840057,1776080972.229361,599616064952247780,-132
5.847750,1776080972.229361,599616064952247780,11
5.855442,1776080972.229361,599616064952247780,-134
5.863134,1776080972.229361,599616064952247780,-128
5.870827,1776080972.229361,599616064952247780,-48
5.878519,1776080972.229361,599616064952247780,-84
5.886211,1776080972.229361,599616064952247780,-100
5.893903,1776080972.229361,599616064952247780,-73
5.901596,1776080972.229361,599616064952247780,-77
5.909288,1776080972.229361,599616064952247780,-84
5.916980,1776080972.229361,599616064952247780,-68
5.924673,1776080972.229361,599616064952247780,-61
5.932365,1776080972.229361,599616064952247780,-59
5.940057,1776080972.229361,599616064952247780,-50
5.947750,1776080972.229361,599616064952247780,-43
5.955442,1776080972.229361,599616064952247780,-52
5.963134,1776080972.229361,599616064952247780,-80
5.970827,1776080972.229361,599616064952247780,-75
5.978519,1776080972.229361,599616064952247780,-34
5.986211,1776080972.229361,599616064952247780,-61
5.993904,1776080972.229361,599616064952247780,-144
6.001596,1776080972.229361,599616064952247780,-144
6.009288,1776080972.229361,599616064952247780,-107
6.016980,1776080972.229361,599616064952247780,-118
6.024673,1776080972.229361,599616064952247780,-130
6.032365,1776080972.229361,599616064952247780,-114
6.040057,1776080972.229361,599616064952247780,-112
6.047750,1776080972.229361,599616064952247780,-118
6.055442,1776080972.229361,599616064952247780,-116
6.063134,1776080972.229361,599616064952247780,-112
6.070827,1776080972.229361,599616064952247780,-114
6.078519,1776080972.229361,599616064952247780,-112
6.086211,1776080972.229361,599616064952247780,-114
6.093903,1776080972.229361,599616064952247780,-118
6.101596,1776080972.229361,599616064952247780,-116
6.109288,1776080972.229361,599616064952247780,-109
6.116980,1776080972.229361,599616064952247780,-112
6.124673,1776080972.229361,599616064952247780,-114
6.132365,1776080972.229361,599616064952247780,-112
6.140057,1776080972.229361,599616064952247780,-112
6.147750,1776080972.229361,599616064952247780,-118
6.155442,1776080972.229361,599616064952247780,-116
6.163134,1776080972.229361,599616064952247780,-112
6.170827,1776080972.229361,599616064952247780,-112
6.178700,1776080972.724086,599616065513967174,-121
6.186392,1776080972.724086,599616065513967174,-128
6.194084,1776080972.724086,599616065513967174,-125
6.201777,1776080972.724086,599616065513967174,-118
6.209469,1776080972.724086,599616065513967174,-118
6.217161,1776080972.724086,599616065513967174,-121
6.224854,1776080972.724086,599616065513967174,-118
6.232546,1776080972.724086,599616065513967174,-118
6.240238,1776080972.724086,599616065513967174,-118
6.247931,1776080972.724086,599616065513967174,-86
6.255623,1776080972.724086,599616065513967174,-41
6.263315,1776080972.724086,599616065513967174,-89
6.271008,1776080972.724086,599616065513967174,-196
6.278700,1776080972.724086,599616065513967174,-196
6.286392,1776080972.724086,599616065513967174,-148
6.294084,1776080972.724086,599616065513967174,-157
6.301777,1776080972.724086,599616065513967174,-169
6.309469,1776080972.724086,599616065513967174,-155
6.317161,1776080972.724086,599616065513967174,-155
6.324854,1776080972.724086,599616065513967174,-153
6.332546,1776080972.724086,599616065513967174,-173
6.340238,1776080972.724086,599616065513967174,-333
6.347931,1776080972.724086,599616065513967174,-185
6.355623,1776080972.724086,599616065513967174,157
6.363315,1776080972.724086,599616065513967174,-169
6.371008,1776080972.724086,599616065513967174,-363
6.378700,1776080972.724086,599616065513967174,-29
6.386392,1776080972.724086,599616065513967174,-59
6.394084,1776080972.724086,599616065513967174,-214
6.401777,1776080972.724086,599616065513967174,-114
6.409469,1776080972.724086,599616065513967174,-77
6.417161,1776080972.724086,599616065513967174,-137
6.424854,1776080972.724086,599616065513967174,-112
6.432546,1776080972.724086,599616065513967174,-86
6.440238,1776080972.724086,599616065513967174,-102
6.447931,1776080972.724086,599616065513967174,-96
6.455623,1776080972.724086,599616065513967174,-80
6.463315,1776080972.724086,599616065513967174,-82
6.471007,1776080972.724086,599616065513967174,-80
6.478700,1776080972.724086,599616065513967174,-68
6.486392,1776080972.724086,599616065513967174,-66
6.494084,1776080972.724086,599616065513967174,-86
6.501777,1776080972.724086,599616065513967174,-121
6.509469,1776080972.724086,599616065513967174,-96
6.517161,1776080972.724086,599616065513967174,-29
6.524854,1776080972.724086,599616065513967174,-66
6.532546,1776080972.724086,599616065513967174,-144
6.540238,1776080972.724086,599616065513967174,-123
6.547931,1776080972.724086,599616065513967174,-96
6.555623,1776080972.724086,599616065513967174,-116
6.563315,1776080972.724086,599616065513967174,-116
6.571007,1776080972.724086,599616065513967174,-102
6.578700,1776080972.724086,599616065513967174,-107
6.586392,1776080972.724086,599616065513967174,-109
6.594084,1776080972.724086,599616065513967174,-105
6.601777,1776080972.724086,599616065513967174,-102
6.609469,1776080972.724086,599616065513967174,-105
6.617161,1776080972.724086,599616065513967174,-102
6.624854,1776080972.724086,599616065513967174,-100
6.632546,1776080972.724086,599616065513967174,-102
6.640238,1776080972.724086,599616065513967174,-102
6.647931,1776080972.724086,599616065513967174,-102
6.655623,1776080972.724086,599616065513967174,-100
6.663315,1776080972.724086,599616065513967174,-100
6.671008,1776080972.724086,599616065513967174,-102
6.678700,1776080972.724086,599616065513967174,-109
6.686392,1776080972.724086,599616065513967174,-109
6.694084,1776080972.724086,599616065513967174,-102
6.701777,1776080972.724086,599616065513967174,-100
6.709469,1776080972.724086,599616065513967174,-100
6.717161,1776080972.724086,599616065513967174,-100
6.724854,1776080972.724086,599616065513967174,-107
6.732546,1776080972.724086,599616065513967174,-112
6.740384,1776080973.354227,599616066075650966,-112
6.748076,1776080973.354227,599616066075650966,-112
6.755768,1776080973.354227,599616066075650966,-112
6.763460,1776080973.354227,599616066075650966,-114
6.771153,1776080973.354227,599616066075650966,-123
6.778845,1776080973.354227,599616066075650966,-118
6.786537,1776080973.354227,599616066075650966,-112
6.794230,1776080973.354227,599616066075650966,-112
6.801922,1776080973.354227,599616066075650966,-112
6.809614,1776080973.354227,599616066075650966,-109
6.817307,1776080973.354227,599616066075650966,-109
6.824999,1776080973.354227,599616066075650966,-107
6.832691,1776080973.354227,599616066075650966,-105
6.840384,1776080973.354227,599616066075650966,-105
6.848076,1776080973.354227,599616066075650966,-107
6.855768,1776080973.354227,599616066075650966,-109
6.863460,1776080973.354227,599616066075650966,-114
6.871153,1776080973.354227,599616066075650966,-116
6.878845,1776080973.354227,599616066075650966,-116
6.886537,1776080973.354227,599616066075650966,-116
6.894230,1776080973.354227,599616066075650966,-114
6.901922,1776080973.354227,599616066075650966,-114
6.909614,1776080973.354227,599616066075650966,-112
6.917307,1776080973.354227,599616066075650966,-107
6.924999,1776080973.354227,599616066075650966,-107
6.932691,1776080973.354227,599616066075650966,-105
6.940383,1776080973.354227,599616066075650966,-102
6.948076,1776080973.354227,599616066075650966,-105
6.955768,1776080973.354227,599616066075650966,-102
6.963460,1776080973.354227,599616066075650966,-102
6.971153,1776080973.354227,599616066075650966,-105
6.978845,1776080973.354227,599616066075650966,-105
6.986537,1776080973.354227,599616066075650966,-102
6.994230,1776080973.354227,599616066075650966,-102
7.001922,1776080973.354227,599616066075650966,-102
7.009614,1776080973.354227,599616066075650966,-100
7.017307,1776080973.354227,599616066075650966,-102
7.024999,1776080973.354227,599616066075650966,-102
7.032691,1776080973.354227,599616066075650966,-102
7.040383,1776080973.354227,599616066075650966,-105
7.048076,1776080973.354227,599616066075650966,-105
7.055768,1776080973.354227,599616066075650966,-100
7.063460,1776080973.354227,599616066075650966,-100
7.071153,1776080973.354227,599616066075650966,-102
7.078845,1776080973.354227,599616066075650966,-102
7.086537,1776080973.354227,599616066075650966,-105
7.094230,1776080973.354227,599616066075650966,-105
7.101922,1776080973.354227,599616066075650966,-105
7.109614,1776080973.354227,599616066075650966,-105
7.117307,1776080973.354227,599616066075650966,-107
7.124999,1776080973.354227,599616066075650966,-112
7.132691,1776080973.354227,599616066075650966,-105
7.140383,1776080973.354227,599616066075650966,-61
7.148076,1776080973.354227,599616066075650966,-2
7.155768,1776080973.354227,599616066075650966,-22
7.163460,1776080973.354227,599616066075650966,-132
7.171153,1776080973.354227,599616066075650966,-196
7.178845,1776080973.354227,599616066075650966,-162
7.186537,1776080973.354227,599616066075650966,-141
7.194230,1776080973.354227,599616066075650966,-162
7.201922,1776080973.354227,599616066075650966,-169
7.209614,1776080973.354227,599616066075650966,-169
7.217306,1776080973.354227,599616066075650966,-173
7.224999,1776080973.354227,599616066075650966,-224
7.232691,1776080973.354227,599616066075650966,-413
7.240384,1776080973.354227,599616066075650966,-201
7.248076,1776080973.354227,599616066075650966,178
7.255768,1776080973.354227,599616066075650966,-251
7.263460,1776080973.354227,599616066075650966,-477
7.271153,1776080973.354227,599616066075650966,-91
7.278845,1776080973.354227,599616066075650966,-134
7.286537,1776080973.354227,599616066075650966,-301
7.294230,1776080973.354227,599616066075650966,-185
7.302077,1776080973.937550,599616066637344928,-144
7.309770,1776080973.937550,599616066637344928,-185
7.317462,1776080973.937550,599616066637344928,-130
7.325154,1776080973.937550,599616066637344928,-91
7.332847,1776080973.937550,599616066637344928,-107
7.340539,1776080973.937550,599616066637344928,-100
7.348231,1776080973.937550,599616066637344928,-86
7.355924,1776080973.937550,599616066637344928,-96
7.363616,1776080973.937550,599616066637344928,-98
7.371308,1776080973.937550,599616066637344928,-93
7.379000,1776080973.937550,599616066637344928,-105
7.386693,1776080973.937550,599616066637344928,-148
7.394385,1776080973.937550,599616066637344928,-235
7.402077,1776080973.937550,599616066637344928,-253
7.409770,1776080973.937550,599616066637344928,-114
7.417462,1776080973.937550,599616066637344928,-38
7.425154,1776080973.937550,599616066637344928,-125
7.432847,1776080973.937550,599616066637344928,-144
7.440539,1776080973.937550,599616066637344928,-91
7.448231,1776080973.937550,599616066637344928,-105
7.455924,1776080973.937550,599616066637344928,-123
7.463616,1776080973.937550,599616066637344928,-105
7.471308,1776080973.937550,599616066637344928,-105
7.479000,1776080973.937550,599616066637344928,-112
7.486693,1776080973.937550,599616066637344928,-105
7.494385,1776080973.937550,599616066637344928,-102
7.502077,1776080973.937550,599616066637344928,-105
7.509770,1776080973.937550,599616066637344928,-100
7.517462,1776080973.937550,599616066637344928,-96
7.525154,1776080973.937550,599616066637344928,-102
7.532847,1776080973.937550,599616066637344928,-109
7.540539,1776080973.937550,599616066637344928,-105
7.548231,1776080973.937550,599616066637344928,-105
7.555924,1776080973.937550,599616066637344928,-109
7.563616,1776080973.937550,599616066637344928,-102
7.571308,1776080973.937550,599616066637344928,-100
7.579000,1776080973.937550,599616066637344928,-105
7.586693,1776080973.937550,599616066637344928,-107
7.594385,1776080973.937550,599616066637344928,-107
7.602077,1776080973.937550,599616066637344928,-105
7.609770,1776080973.937550,599616066637344928,-105
7.617462,1776080973.937550,599616066637344928,-109
7.625154,1776080973.937550,599616066637344928,-112
7.632847,1776080973.937550,599616066637344928,-109
7.640539,1776080973.937550,599616066637344928,-109
7.648231,1776080973.937550,599616066637344928,-109
7.655923,1776080973.937550,599616066637344928,-112
7.663616,1776080973.937550,599616066637344928,-116
7.671308,1776080973.937550,599616066637344928,-116
7.679000,1776080973.937550,599616066637344928,-114
7.686693,1776080973.937550,599616066637344928,-116
7.694385,1776080973.937550,599616066637344928,-114
7.702077,1776080973.937550,599616066637344928,-114
7.709770,1776080973.937550,599616066637344928,-125
7.717462,1776080973.937550,599616066637344928,-132
7.725154,1776080973.937550,599616066637344928,-123
7.732847,1776080973.937550,599616066637344928,-123
7.740539,1776080973.937550,599616066637344928,-132
7.748231,1776080973.937550,599616066637344928,-137
7.755924,1776080973.937550,599616066637344928,-137
7.763616,1776080973.937550,599616066637344928,-137
7.771308,1776080973.937550,599616066637344928,-137
7.779000,1776080973.937550,599616066637344928,-137
7.786693,1776080973.937550,599616066637344928,-134
7.794385,1776080973.937550,599616066637344928,-132
7.802077,1776080973.937550,599616066637344928,-130
7.809770,1776080973.937550,599616066637344928,-132
7.817462,1776080973.937550,599616066637344928,-137
7.825154,1776080973.937550,599616066637344928,-141
7.832847,1776080973.937550,599616066637344928,-139
7.840539,1776080973.937550,599616066637344928,-141
7.848231,1776080973.937550,599616066637344928,-144
7.855924,1776080973.937550,599616066637344928,-139
7.863782,1776080974.438280,599616067199049064,-146
7.871474,1776080974.438280,599616067199049064,-150
7.879166,1776080974.438280,599616067199049064,-148
7.886859,1776080974.438280,599616067199049064,-150
7.894551,1776080974.438280,599616067199049064,-160
7.902243,1776080974.438280,599616067199049064,-155
7.909935,1776080974.438280,599616067199049064,-146
7.917628,1776080974.438280,599616067199049064,-148
7.925320,1776080974.438280,599616067199049064,-146
7.933012,1776080974.438280,599616067199049064,-141
7.940705,1776080974.438280,599616067199049064,-139
7.948397,1776080974.438280,599616067199049064,-137
7.956089,1776080974.438280,599616067199049064,-137
7.963782,1776080974.438280,599616067199049064,-134
7.971474,1776080974.438280,599616067199049064,-132
7.979166,1776080974.438280,599616067199049064,-134
7.986859,1776080974.438280,599616067199049064,-139
7.994551,1776080974.438280,599616067199049064,-134
8.002243,1776080974.438280,599616067199049064,-132
8.009935,1776080974.438280,599616067199049064,-132
8.017628,1776080974.438280,599616067199049064,-123
8.025320,1776080974.438280,599616067199049064,-123
8.033012,1776080974.438280,599616067199049064,-128
8.040705,1776080974.438280,599616067199049064,-123
8.048397,1776080974.438280,599616067199049064,-112
8.056089,1776080974.438280,599616067199049064,-109
8.063782,1776080974.438280,599616067199049064,-112
8.071474,1776080974.438280,599616067199049064,-118
8.079166,1776080974.438280,599616067199049064,-121
8.086859,1776080974.438280,599616067199049064,-112
8.094551,1776080974.438280,599616067199049064,-105
8.102243,1776080974.438280,599616067199049064,-109
8.109936,1776080974.438280,599616067199049064,-118
8.117628,1776080974.438280,599616067199049064,-116
8.125320,1776080974.438280,599616067199049064,-109
8.133012,1776080974.438280,599616067199049064,-105
8.140705,1776080974.438280,599616067199049064,-107
8.148397,1776080974.438280,599616067199049064,-109
8.156089,1776080974.438280,599616067199049064,-86
8.163782,1776080974.438280,599616067199049064,-18
8.171474,1776080974.438280,599616067199049064,22
8.179166,1776080974.438280,599616067199049064,-45
8.186859,1776080974.438280,599616067199049064,-150
8.194551,1776080974.438280,599616067199049064,-153
8.202243,1776080974.438280,599616067199049064,-102
8.209936,1776080974.438280,599616067199049064,-102
8.217628,1776080974.438280,599616067199049064,-91
8.225320,1776080974.438280,599616067199049064,-43
8.233012,1776080974.438280,599616067199049064,-45
8.240705,1776080974.438280,599616067199049064,-93
8.248397,1776080974.438280,599616067199049064,-219
8.256089,1776080974.438280,599616067199049064,-292
8.263782,1776080974.438280,599616067199049064,20
8.271474,1776080974.438280,599616067199049064,107
8.279166,1776080974.438280,599616067199049064,-278
8.286859,1776080974.438280,599616067199049064,-189
8.294551,1776080974.438280,599616067199049064,50
8.302243,1776080974.438280,599616067199049064,-109
8.309935,1776080974.438280,599616067199049064,-157
8.317628,1776080974.438280,599616067199049064,-68
8.325320,1776080974.438280,599616067199049064,-98
8.333012,1776080974.438280,599616067199049064,-125
8.340705,1776080974.438280,599616067199049064,-93
8.348397,1776080974.438280,599616067199049064,-89
8.356089,1776080974.438280,599616067199049064,-107
8.363782,1776080974.438280,599616067199049064,-102
8.371474,1776080974.438280,599616067199049064,-93
8.379166,1776080974.438280,599616067199049064,-98
8.386859,1776080974.438280,599616067199049064,-105
8.394551,1776080974.438280,599616067199049064,-98
8.402243,1776080974.438280,599616067199049064,-96
8.409935,1776080974.438280,599616067199049064,-123
8.417628,1776080974.438280,599616067199049064,-164
8.425486,1776080975.018690,599616067760753198,-141
8.433178,1776080975.018690,599616067760753198,-57
8.440870,1776080975.018690,599616067760753198,-54
8.448563,1776080975.018690,599616067760753198,-125
8.456255,1776080975.018690,599616067760753198,-128
8.463947,1776080975.018690,599616067760753198,-107
8.471640,1776080975.018690,599616067760753198,-130
8.479332,1776080975.018690,599616067760753198,-148
8.487024,1776080975.018690,599616067760753198,-144
8.494717,1776080975.018690,599616067760753198,-141
8.502409,1776080975.018690,599616067760753198,-141
8.510101,1776080975.018690,599616067760753198,-137
8.517793,1776080975.018690,599616067760753198,-139
8.525486,1776080975.018690,599616067760753198,-139
8.533178,1776080975.018690,599616067760753198,-134
8.540870,1776080975.018690,599616067760753198,-132
8.548563,1776080975.018690,599616067760753198,-134
8.556255,1776080975.018690,599616067760753198,-137
8.563947,1776080975.018690,599616067760753198,-134
8.571640,1776080975.018690,599616067760753198,-132
8.579332,1776080975.018690,599616067760753198,-130
8.587024,1776080975.018690,599616067760753198,-130
8.594716,1776080975.018690,599616067760753198,-134
8.602409,1776080975.018690,599616067760753198,-141
8.610101,1776080975.018690,599616067760753198,-148
8.617793,1776080975.018690,599616067760753198,-150
8.625486,1776080975.018690,599616067760753198,-146
8.633178,1776080975.018690,599616067760753198,-141
8.640870,1776080975.018690,599616067760753198,-137
8.648563,1776080975.018690,599616067760753198,-134
8.656255,1776080975.018690,599616067760753198,-134
8.663947,1776080975.018690,599616067760753198,-137
8.671640,1776080975.018690,599616067760753198,-132
8.679332,1776080975.018690,599616067760753198,-128
8.687024,1776080975.018690,599616067760753198,-123
8.694716,1776080975.018690,599616067760753198,-121
8.702409,1776080975.018690,599616067760753198,-123
8.710101,1776080975.018690,599616067760753198,-125
8.717793,1776080975.018690,599616067760753198,-121
8.725486,1776080975.018690,599616067760753198,-116
8.733178,1776080975.018690,599616067760753198,-116
8.740870,1776080975.018690,599616067760753198,-121
8.748563,1776080975.018690,599616067760753198,-130
8.756255,1776080975.018690,599616067760753198,-132
8.763947,1776080975.018690,599616067760753198,-125
8.771640,1776080975.018690,599616067760753198,-125
8.779332,1776080975.018690,599616067760753198,-128
8.787024,1776080975.018690,599616067760753198,-132
8.794716,1776080975.018690,599616067760753198,-137
8.802409,1776080975.018690,599616067760753198,-134
8.810101,1776080975.018690,599616067760753198,-128
8.817793,1776080975.018690,599616067760753198,-128
8.825486,1776080975.018690,599616067760753198,-132
8.833178,1776080975.018690,599616067760753198,-141
8.840870,1776080975.018690,599616067760753198,-144
8.848563,1776080975.018690,599616067760753198,-139
8.856255,1776080975.018690,599616067760753198,-139
8.863947,1776080975.018690,599616067760753198,-137
8.871639,1776080975.018690,599616067760753198,-132
8.879332,1776080975.018690,599616067760753198,-132
8.887024,1776080975.018690,599616067760753198,-132
8.894717,1776080975.018690,599616067760753198,-130
8.902409,1776080975.018690,599616067760753198,-125
8.910101,1776080975.018690,599616067760753198,-123
8.917793,1776080975.018690,599616067760753198,-114
8.925486,1776080975.018690,599616067760753198,-73
8.933178,1776080975.018690,599616067760753198,-18
8.940870,1776080975.018690,599616067760753198,-48
8.948563,1776080975.018690,599616067760753198,-157
8.956255,1776080975.018690,599616067760753198,-187
8.963947,1776080975.018690,599616067760753198,-141
8.971640,1776080975.018690,599616067760753198,-146
8.979332,1776080975.018690,599616067760753198,-164
8.987180,1776080975.602081,599616068322447162,-144
8.994872,1776080975.602081,599616068322447162,-132
9.002564,1776080975.602081,599616068322447162,-137
9.010257,1776080975.602081,599616068322447162,-185
9.017949,1776080975.602081,599616068322447162,-329
9.025641,1776080975.602081,599616068322447162,-118
9.033333,1776080975.602081,599616068322447162,139
9.041026,1776080975.602081,599616068322447162,-235
9.048718,1776080975.602081,599616068322447162,-313
9.056410,1776080975.602081,599616068322447162,2
9.064103,1776080975.602081,599616068322447162,-100
9.071795,1776080975.602081,599616068322447162,-208
9.079487,1776080975.602081,599616068322447162,-93
9.087180,1776080975.602081,599616068322447162,-91
9.094872,1776080975.602081,599616068322447162,-146
9.102564,1776080975.602081,599616068322447162,-121
9.110257,1776080975.602081,599616068322447162,-107
9.117949,1776080975.602081,599616068322447162,-123
9.125641,1776080975.602081,599616068322447162,-116
9.133333,1776080975.602081,599616068322447162,-105
9.141026,1776080975.602081,599616068322447162,-105
9.148718,1776080975.602081,599616068322447162,-107
9.156410,1776080975.602081,599616068322447162,-107
9.164103,1776080975.602081,599616068322447162,-107
9.171795,1776080975.602081,599616068322447162,-116
9.179487,1776080975.602081,599616068322447162,-148
9.187180,1776080975.602081,599616068322447162,-144
9.194872,1776080975.602081,599616068322447162,-70
9.202564,1776080975.602081,599616068322447162,-57
9.210257,1776080975.602081,599616068322447162,-137
9.217949,1776080975.602081,599616068322447162,-150
9.225641,1776080975.602081,599616068322447162,-114
9.233333,1776080975.602081,599616068322447162,-121
9.241026,1776080975.602081,599616068322447162,-137
9.248718,1776080975.602081,599616068322447162,-137
9.256410,1776080975.602081,599616068322447162,-141
9.264103,1776080975.602081,599616068322447162,-146
9.271795,1776080975.602081,599616068322447162,-137
9.279487,1776080975.602081,599616068322447162,-134
9.287180,1776080975.602081,599616068322447162,-137
9.294872,1776080975.602081,599616068322447162,-132
9.302564,1776080975.602081,599616068322447162,-118
9.310256,1776080975.602081,599616068322447162,-116
9.317949,1776080975.602081,599616068322447162,-125
9.325641,1776080975.602081,599616068322447162,-134
9.333333,1776080975.602081,599616068322447162,-139
9.341026,1776080975.602081,599616068322447162,-144
9.348718,1776080975.602081,599616068322447162,-146
9.356410,1776080975.602081,599616068322447162,-141
9.364103,1776080975.602081,599616068322447162,-139
9.371795,1776080975.602081,599616068322447162,-139
9.379487,1776080975.602081,599616068322447162,-139
9.387180,1776080975.602081,599616068322447162,-137
9.394872,1776080975.602081,599616068322447162,-134
9.402564,1776080975.602081,599616068322447162,-132
9.410257,1776080975.602081,599616068322447162,-132
9.417949,1776080975.602081,599616068322447162,-130
9.425641,1776080975.602081,599616068322447162,-128
9.433333,1776080975.602081,599616068322447162,-130
9.441026,1776080975.602081,599616068322447162,-132
9.448718,1776080975.602081,599616068322447162,-130
9.456410,1776080975.602081,599616068322447162,-128
9.464103,1776080975.602081,599616068322447162,-132
9.471795,1776080975.602081,599616068322447162,-137
9.479487,1776080975.602081,599616068322447162,-134
9.487180,1776080975.602081,599616068322447162,-137
9.494872,1776080975.602081,599616068322447162,-139
9.502564,1776080975.602081,599616068322447162,-137
9.510257,1776080975.602081,599616068322447162,-139
9.517949,1776080975.602081,599616068322447162,-128
9.525641,1776080975.602081,599616068322447162,-64
9.533333,1776080975.602081,599616068322447162,-34
9.541026,1776080975.602081,599616068322447162,-130
9.548894,1776080976.143424,599616068884161468,-217
9.556586,1776080976.143424,599616068884161468,-180
9.564278,1776080976.143424,599616068884161468,-148
9.571971,1776080976.143424,599616068884161468,-166
9.579663,1776080976.143424,599616068884161468,-166
9.587355,1776080976.143424,599616068884161468,-150
9.595048,1776080976.143424,599616068884161468,-150
9.602740,1776080976.143424,599616068884161468,-155
9.610432,1776080976.143424,599616068884161468,-260
9.618125,1776080976.143424,599616068884161468,-256
9.625817,1776080976.143424,599616068884161468,-13
9.633509,1776080976.143424,599616068884161468,-114
9.641202,1776080976.143424,599616068884161468,-320
9.648894,1776080976.143424,599616068884161468,-125
9.656586,1776080976.143424,599616068884161468,-57
9.664279,1776080976.143424,599616068884161468,-187
9.671971,1776080976.143424,599616068884161468,-146
9.679663,1776080976.143424,599616068884161468,-89
9.687355,1776080976.143424,599616068884161468,-130
9.695048,1776080976.143424,599616068884161468,-130
9.702740,1776080976.143424,599616068884161468,-98
9.710432,1776080976.143424,599616068884161468,-98
9.718125,1776080976.143424,599616068884161468,-100
9.725817,1776080976.143424,599616068884161468,-86
9.733509,1776080976.143424,599616068884161468,-82
9.741202,1776080976.143424,599616068884161468,-80
9.748894,1776080976.143424,599616068884161468,-70
9.756586,1776080976.143424,599616068884161468,-68
9.764279,1776080976.143424,599616068884161468,-77
9.771971,1776080976.143424,599616068884161468,-93
9.779663,1776080976.143424,599616068884161468,-100
9.787355,1776080976.143424,599616068884161468,-68
9.795048,1776080976.143424,599616068884161468,-68
9.802740,1776080976.143424,599616068884161468,-141
9.810432,1776080976.143424,599616068884161468,-166
9.818125,1776080976.143424,599616068884161468,-132
9.825817,1776080976.143424,599616068884161468,-134
9.833509,1776080976.143424,599616068884161468,-150
9.841202,1776080976.143424,599616068884161468,-146
9.848894,1776080976.143424,599616068884161468,-150
9.856586,1776080976.143424,599616068884161468,-155
9.864279,1776080976.143424,599616068884161468,-153
9.871971,1776080976.143424,599616068884161468,-157
9.879663,1776080976.143424,599616068884161468,-160
9.887355,1776080976.143424,599616068884161468,-148
9.895048,1776080976.143424,599616068884161468,-146
9.902740,1776080976.143424,599616068884161468,-150
9.910432,1776080976.143424,599616068884161468,-153
9.918125,1776080976.143424,599616068884161468,-148
9.925817,1776080976.143424,599616068884161468,-146
9.933509,1776080976.143424,599616068884161468,-144
9.941202,1776080976.143424,599616068884161468,-141
9.948894,1776080976.143424,599616068884161468,-141
9.956586,1776080976.143424,599616068884161468,-139
9.964278,1776080976.143424,599616068884161468,-137
9.971971,1776080976.143424,599616068884161468,-130
9.979663,1776080976.143424,599616068884161468,-128
9.987355,1776080976.143424,599616068884161468,-130
9.995048,1776080976.143424,599616068884161468,-132
10.002740,1776080976.143424,599616068884161468,-137
10.010432,1776080976.143424,599616068884161468,-141
10.018125,1776080976.143424,599616068884161468,-123
10.025817,1776080976.143424,599616068884161468,-70
10.033509,1776080976.143424,599616068884161468,-57
10.041202,1776080976.143424,599616068884161468,-144
10.048894,1776080976.143424,599616068884161468,-205
10.056586,1776080976.143424,599616068884161468,-169
10.064278,1776080976.143424,599616068884161468,-148
10.071971,1776080976.143424,599616068884161468,-164
10.079663,1776080976.143424,599616068884161468,-164
10.087355,1776080976.143424,599616068884161468,-153
10.095048,1776080976.143424,599616068884161468,-150
10.102740,1776080976.143424,599616068884161468,-164
10.110583,1776080976.820084,599616069445850346,-272
10.118275,1776080976.820084,599616069445850346,-185
10.125968,1776080976.820084,599616069445850346,25
10.133660,1776080976.820084,599616069445850346,-205
10.141352,1776080976.820084,599616069445850346,-297
10.149044,1776080976.820084,599616069445850346,-38
10.156737,1776080976.820084,599616069445850346,-73
10.164429,1776080976.820084,599616069445850346,-180
10.172121,1776080976.820084,599616069445850346,-100
10.179814,1776080976.820084,599616069445850346,-86
10.187506,1776080976.820084,599616069445850346,-137
10.195198,1776080976.820084,599616069445850346,-118
10.202891,1776080976.820084,599616069445850346,-91
10.210583,1776080976.820084,599616069445850346,-98
10.218275,1776080976.820084,599616069445850346,-91
10.225968,1776080976.820084,599616069445850346,-75
10.233660,1776080976.820084,599616069445850346,-70
10.241352,1776080976.820084,599616069445850346,-66
10.249044,1776080976.820084,599616069445850346,-54
10.256737,1776080976.820084,599616069445850346,-48
10.264429,1776080976.820084,599616069445850346,-57
10.272121,1776080976.820084,599616069445850346,-77
10.279814,1776080976.820084,599616069445850346,-66
10.287506,1776080976.820084,599616069445850346,-59
10.295198,1776080976.820084,599616069445850346,-125
10.302891,1776080976.820084,599616069445850346,-176
10.310583,1776080976.820084,599616069445850346,-146
10.318275,1776080976.820084,599616069445850346,-130
10.325968,1776080976.820084,599616069445850346,-148
10.333660,1776080976.820084,599616069445850346,-141
10.341352,1776080976.820084,599616069445850346,-130
10.349044,1776080976.820084,599616069445850346,-134
10.356737,1776080976.820084,599616069445850346,-137
10.364429,1776080976.820084,599616069445850346,-137
10.372121,1776080976.820084,599616069445850346,-137
10.379814,1776080976.820084,599616069445850346,-130
10.387506,1776080976.820084,599616069445850346,-128
10.395198,1776080976.820084,599616069445850346,-123
10.402891,1776080976.820084,599616069445850346,-121
10.410583,1776080976.820084,599616069445850346,-118
10.418275,1776080976.820084,599616069445850346,-118
10.425968,1776080976.820084,599616069445850346,-112
10.433660,1776080976.820084,599616069445850346,-109
10.441352,1776080976.820084,599616069445850346,-105
10.449044,1776080976.820084,599616069445850346,-102
10.456737,1776080976.820084,599616069445850346,-107
10.464429,1776080976.820084,599616069445850346,-105
10.472121,1776080976.820084,599616069445850346,-98
10.479814,1776080976.820084,599616069445850346,-96
10.487506,1776080976.820084,599616069445850346,-93
10.495198,1776080976.820084,599616069445850346,-96
10.502891,1776080976.820084,599616069445850346,-96
10.510583,1776080976.820084,599616069445850346,-84
10.518275,1776080976.820084,599616069445850346,-45
10.525967,1776080976.820084,599616069445850346,-4
10.533660,1776080976.820084,599616069445850346,-50
10.541352,1776080976.820084,599616069445850346,-148
10.549044,1776080976.820084,599616069445850346,-155
10.556737,1776080976.820084,599616069445850346,-114
10.564429,1776080976.820084,599616069445850346,-125
10.572121,1776080976.820084,599616069445850346,-137
10.579814,1776080976.820084,599616069445850346,-123
10.587506,1776080976.820084,599616069445850346,-118
10.595198,1776080976.820084,599616069445850346,-123
10.602891,1776080976.820084,599616069445850346,-178
10.610583,1776080976.820084,599616069445850346,-304
10.618275,1776080976.820084,599616069445850346,-48
10.625968,1776080976.820084,599616069445850346,192
10.633660,1776080976.820084,599616069445850346,-242
10.641352,1776080976.820084,599616069445850346,-304
10.649044,1776080976.820084,599616069445850346,34
10.656737,1776080976.820084,599616069445850346,-77
10.664429,1776080976.820084,599616069445850346,-180
10.672292,1776080977.315055,599616070007559568,-64
10.679984,1776080977.315055,599616070007559568,-68
10.687677,1776080977.315055,599616070007559568,-123
10.695369,1776080977.315055,599616070007559568,-91
10.703061,1776080977.315055,599616070007559568,-80
10.710754,1776080977.315055,599616070007559568,-98
10.718446,1776080977.315055,599616070007559568,-86
10.726138,1776080977.315055,599616070007559568,-75
10.733831,1776080977.315055,599616070007559568,-89
10.741523,1776080977.315055,599616070007559568,-86
10.749215,1776080977.315055,599616070007559568,-73
10.756907,1776080977.315055,599616070007559568,-68
10.764600,1776080977.315055,599616070007559568,-91
10.772292,1776080977.315055,599616070007559568,-123
10.779984,1776080977.315055,599616070007559568,-93
10.787677,1776080977.315055,599616070007559568,-54
10.795369,1776080977.315055,599616070007559568,-118
10.803061,1776080977.315055,599616070007559568,-173
10.810754,1776080977.315055,599616070007559568,-144
10.818446,1776080977.315055,599616070007559568,-137
10.826138,1776080977.315055,599616070007559568,-157
10.833831,1776080977.315055,599616070007559568,-148
10.841523,1776080977.315055,599616070007559568,-139
10.849215,1776080977.315055,599616070007559568,-146
10.856907,1776080977.315055,599616070007559568,-148
10.864600,1776080977.315055,599616070007559568,-160
10.872292,1776080977.315055,599616070007559568,-164
10.879984,1776080977.315055,599616070007559568,-160
10.887677,1776080977.315055,599616070007559568,-155
10.895369,1776080977.315055,599616070007559568,-157
10.903061,1776080977.315055,599616070007559568,-162
10.910754,1776080977.315055,599616070007559568,-166
10.918446,1776080977.315055,599616070007559568,-169
10.926138,1776080977.315055,599616070007559568,-162
10.933830,1776080977.315055,599616070007559568,-157
10.941523,1776080977.315055,599616070007559568,-155
10.949215,1776080977.315055,599616070007559568,-155
10.956908,1776080977.315055,599616070007559568,-157
10.964600,1776080977.315055,599616070007559568,-155
10.972292,1776080977.315055,599616070007559568,-150
10.979984,1776080977.315055,599616070007559568,-148
10.987677,1776080977.315055,599616070007559568,-146
10.995369,1776080977.315055,599616070007559568,-146
11.003061,1776080977.315055,599616070007559568,-144
11.010754,1776080977.315055,599616070007559568,-144
11.018446,1776080977.315055,599616070007559568,-141
11.026138,1776080977.315055,599616070007559568,-137
11.033831,1776080977.315055,599616070007559568,-137
11.041523,1776080977.315055,599616070007559568,-134
11.049215,1776080977.315055,599616070007559568,-134
11.056907,1776080977.315055,599616070007559568,-139
11.064600,1776080977.315055,599616070007559568,-141
11.072292,1776080977.315055,599616070007559568,-137
11.079984,1776080977.315055,599616070007559568,-141
11.087677,1776080977.315055,599616070007559568,-146
11.095369,1776080977.315055,599616070007559568,-148
11.103061,1776080977.315055,599616070007559568,-144
11.110754,1776080977.315055,599616070007559568,-137
11.118446,1776080977.315055,599616070007559568,-132
11.126138,1776080977.315055,599616070007559568,-130
11.133831,1776080977.315055,599616070007559568,-132
11.141523,1776080977.315055,599616070007559568,-130
11.149215,1776080977.315055,599616070007559568,-130
11.156907,1776080977.315055,599616070007559568,-128
11.164600,1776080977.315055,599616070007559568,-123
11.172292,1776080977.315055,599616070007559568,-121
11.179984,1776080977.315055,599616070007559568,-121
11.187677,1776080977.315055,599616070007559568,-121
11.195369,1776080977.315055,599616070007559568,-118
11.203061,1776080977.315055,599616070007559568,-102
11.210754,1776080977.315055,599616070007559568,-48
11.218446,1776080977.315055,599616070007559568,0
11.226138,1776080977.315055,599616070007559568,-73
11.233976,1776080977.806845,599616070569243358,-182
11.241668,1776080977.806845,599616070569243358,-169
11.249361,1776080977.806845,599616070569243358,-123
11.257053,1776080977.806845,599616070569243358,-134
11.264745,1776080977.806845,599616070569243358,-139
11.272437,1776080977.806845,599616070569243358,-125
11.280130,1776080977.806845,599616070569243358,-130
11.287822,1776080977.806845,599616070569243358,-132
11.295514,1776080977.806845,599616070569243358,-139
11.303207,1776080977.806845,599616070569243358,-315
11.310899,1776080977.806845,599616070569243358,-262
11.318591,1776080977.806845,599616070569243358,166
11.326284,1776080977.806845,599616070569243358,-20
11.333976,1776080977.806845,599616070569243358,-400
11.341668,1776080977.806845,599616070569243358,-118
11.349361,1776080977.806845,599616070569243358,-6
11.357053,1776080977.806845,599616070569243358,-214
11.364745,1776080977.806845,599616070569243358,-169
11.372437,1776080977.806845,599616070569243358,-82
11.380130,1776080977.806845,599616070569243358,-139
11.387822,1776080977.806845,599616070569243358,-144
11.395514,1776080977.806845,599616070569243358,-105
11.403207,1776080977.806845,599616070569243358,-116
11.410899,1776080977.806845,599616070569243358,-123
11.418591,1776080977.806845,599616070569243358,-107
11.426284,1776080977.806845,599616070569243358,-107
11.433976,1776080977.806845,599616070569243358,-112
11.441668,1776080977.806845,599616070569243358,-102
11.449361,1776080977.806845,599616070569243358,-100
11.457053,1776080977.806845,599616070569243358,-107
11.464745,1776080977.806845,599616070569243358,-134
11.472438,1776080977.806845,599616070569243358,-155
11.480130,1776080977.806845,599616070569243358,-93
11.487822,1776080977.806845,599616070569243358,-41
11.495514,1776080977.806845,599616070569243358,-112
11.503207,1776080977.806845,599616070569243358,-160
11.510899,1776080977.806845,599616070569243358,-116
11.518591,1776080977.806845,599616070569243358,-112
11.526284,1776080977.806845,599616070569243358,-134
11.533976,1776080977.806845,599616070569243358,-128
11.541668,1776080977.806845,599616070569243358,-123
11.549361,1776080977.806845,599616070569243358,-137
11.557053,1776080977.806845,599616070569243358,-141
11.564745,1776080977.806845,599616070569243358,-144
11.572438,1776080977.806845,599616070569243358,-153
11.580130,1776080977.806845,599616070569243358,-157
11.587822,1776080977.806845,599616070569243358,-157
11.595514,1776080977.806845,599616070569243358,-162
11.603207,1776080977.806845,599616070569243358,-173
11.610899,1776080977.806845,599616070569243358,-182
11.618591,1776080977.806845,599616070569243358,-182
11.626284,1776080977.806845,599616070569243358,-180
11.633976,1776080977.806845,599616070569243358,-176
11.641668,1776080977.806845,599616070569243358,-162
11.649361,1776080977.806845,599616070569243358,-153
11.657053,1776080977.806845,599616070569243358,-150
11.664745,1776080977.806845,599616070569243358,-144
11.672438,1776080977.806845,599616070569243358,-146
11.680130,1776080977.806845,599616070569243358,-148
11.687822,1776080977.806845,599616070569243358,-137
11.695514,1776080977.806845,599616070569243358,-137
11.703207,1776080977.806845,599616070569243358,-137
11.710899,1776080977.806845,599616070569243358,-130
11.718591,1776080977.806845,599616070569243358,-128
11.726284,1776080977.806845,599616070569243358,-123
11.733976,1776080977.806845,599616070569243358,-116
11.741668,1776080977.806845,599616070569243358,-116
11.749361,1776080977.806845,599616070569243358,-121
11.757053,1776080977.806845,599616070569243358,-123
11.764745,1776080977.806845,599616070569243358,-130
11.772437,1776080977.806845,599616070569243358,-130
11.780130,1776080977.806845,599616070569243358,-130
11.787822,1776080977.806845,599616070569243358,-139
11.795650,1776080978.392725,599616071130916974,-139
11.803342,1776080978.392725,599616071130916974,-137
11.811034,1776080978.392725,599616071130916974,-139
11.818726,1776080978.392725,599616071130916974,-137
11.826419,1776080978.392725,599616071130916974,-130
11.834111,1776080978.392725,599616071130916974,-130
11.841803,1776080978.392725,599616071130916974,-132
11.849496,1776080978.392725,599616071130916974,-139
11.857188,1776080978.392725,599616071130916974,-139
11.864880,1776080978.392725,599616071130916974,-130
11.872573,1776080978.392725,599616071130916974,-125
11.880265,1776080978.392725,599616071130916974,-125
11.887957,1776080978.392725,599616071130916974,-125
11.895650,1776080978.392725,599616071130916974,-123
11.903342,1776080978.392725,599616071130916974,-121
11.911034,1776080978.392725,599616071130916974,-123
11.918726,1776080978.392725,599616071130916974,-121
11.926419,1776080978.392725,599616071130916974,-121
11.934111,1776080978.392725,599616071130916974,-125
11.941803,1776080978.392725,599616071130916974,-123
11.949496,1776080978.392725,599616071130916974,-118
11.957188,1776080978.392725,599616071130916974,-121
11.964880,1776080978.392725,599616071130916974,-121
11.972573,1776080978.392725,599616071130916974,-121
11.980265,1776080978.392725,599616071130916974,-123
11.987957,1776080978.392725,599616071130916974,-125
11.995649,1776080978.392725,599616071130916974,-123
12.003342,1776080978.392725,599616071130916974,-121
12.011034,1776080978.392725,599616071130916974,-118
12.018726,1776080978.392725,599616071130916974,-116
12.026419,1776080978.392725,599616071130916974,-121
12.034111,1776080978.392725,599616071130916974,-132
12.041803,1776080978.392725,599616071130916974,-132
12.049496,1776080978.392725,599616071130916974,-130
12.057188,1776080978.392725,599616071130916974,-132
12.064880,1776080978.392725,599616071130916974,-132
12.072573,1776080978.392725,599616071130916974,-128
12.080265,1776080978.392725,599616071130916974,-134
12.087957,1776080978.392725,599616071130916974,-134
12.095649,1776080978.392725,599616071130916974,-123
12.103342,1776080978.392725,599616071130916974,-116
12.111034,1776080978.392725,599616071130916974,-116
12.118726,1776080978.392725,599616071130916974,-123
12.126419,1776080978.392725,599616071130916974,-128
12.134111,1776080978.392725,599616071130916974,-123
12.141803,1776080978.392725,599616071130916974,-118
12.149496,1776080978.392725,599616071130916974,-118
12.157188,1776080978.392725,599616071130916974,-121
12.164880,1776080978.392725,599616071130916974,-121
12.172573,1776080978.392725,599616071130916974,-121
12.180265,1776080978.392725,599616071130916974,-118
12.187957,1776080978.392725,599616071130916974,-118
12.195650,1776080978.392725,599616071130916974,-118
12.203342,1776080978.392725,599616071130916974,-118
12.211034,1776080978.392725,599616071130916974,-121
12.218726,1776080978.392725,599616071130916974,-121
12.226419,1776080978.392725,599616071130916974,-118
12.234111,1776080978.392725,599616071130916974,-118
12.241803,1776080978.392725,599616071130916974,-116
12.249496,1776080978.392725,599616071130916974,-84
12.257188,1776080978.392725,599616071130916974,-22
12.264880,1776080978.392725,599616071130916974,-16
12.272573,1776080978.392725,599616071130916974,-112
12.280265,1776080978.392725,599616071130916974,-194
12.287957,1776080978.392725,599616071130916974,-180
12.295650,1776080978.392725,599616071130916974,-164
12.303342,1776080978.392725,599616071130916974,-187
12.311034,1776080978.392725,599616071130916974,-180
12.318726,1776080978.392725,599616071130916974,-157
12.326419,1776080978.392725,599616071130916974,-150
12.334111,1776080978.392725,599616071130916974,-171
12.341803,1776080978.392725,599616071130916974,-349
12.349496,1776080978.392725,599616071130916974,-276
12.357369,1776080978.932773,599616071692636368,173
12.365061,1776080978.932773,599616071692636368,-29
12.372754,1776080978.932773,599616071692636368,-423
12.380446,1776080978.932773,599616071692636368,-125
12.388138,1776080978.932773,599616071692636368,-4
12.395830,1776080978.932773,599616071692636368,-212
12.403523,1776080978.932773,599616071692636368,-162
12.411215,1776080978.932773,599616071692636368,-75
12.418907,1776080978.932773,599616071692636368,-134
12.426600,1776080978.932773,599616071692636368,-144
12.434292,1776080978.932773,599616071692636368,-112
12.441984,1776080978.932773,599616071692636368,-125
12.449677,1776080978.932773,599616071692636368,-132
12.457369,1776080978.932773,599616071692636368,-116
12.465061,1776080978.932773,599616071692636368,-121
12.472754,1776080978.932773,599616071692636368,-128
12.480446,1776080978.932773,599616071692636368,-128
12.488138,1776080978.932773,599616071692636368,-137
12.495830,1776080978.932773,599616071692636368,-141
12.503523,1776080978.932773,599616071692636368,-162
12.511215,1776080978.932773,599616071692636368,-198
12.518907,1776080978.932773,599616071692636368,-153
12.526600,1776080978.932773,599616071692636368,-61
12.534292,1776080978.932773,599616071692636368,-91
12.541984,1776080978.932773,599616071692636368,-164
12.549677,1776080978.932773,599616071692636368,-144
12.557369,1776080978.932773,599616071692636368,-121
12.565061,1776080978.932773,599616071692636368,-141
12.572754,1776080978.932773,599616071692636368,-148
12.580446,1776080978.932773,599616071692636368,-141
12.588138,1776080978.932773,599616071692636368,-144
12.595830,1776080978.932773,599616071692636368,-141
12.603523,1776080978.932773,599616071692636368,-137
12.611215,1776080978.932773,599616071692636368,-139
12.618907,1776080978.932773,599616071692636368,-141
12.626600,1776080978.932773,599616071692636368,-137
12.634292,1776080978.932773,599616071692636368,-134
12.641984,1776080978.932773,599616071692636368,-139
12.649677,1776080978.932773,599616071692636368,-139
12.657369,1776080978.932773,599616071692636368,-139
12.665061,1776080978.932773,599616071692636368,-146
12.672754,1776080978.932773,599616071692636368,-146
12.680446,1776080978.932773,599616071692636368,-144
12.688138,1776080978.932773,599616071692636368,-146
12.695830,1776080978.932773,599616071692636368,-148
12.703523,1776080978.932773,599616071692636368,-150
12.711215,1776080978.932773,599616071692636368,-157
12.718907,1776080978.932773,599616071692636368,-157
12.726600,1776080978.932773,599616071692636368,-146
12.734292,1776080978.932773,599616071692636368,-146
12.741984,1776080978.932773,599616071692636368,-153
12.749677,1776080978.932773,599616071692636368,-153
12.757369,1776080978.932773,599616071692636368,-153
12.765061,1776080978.932773,599616071692636368,-150
12.772753,1776080978.932773,599616071692636368,-144
12.780446,1776080978.932773,599616071692636368,-141
12.788138,1776080978.932773,599616071692636368,-153
12.795830,1776080978.932773,599616071692636368,-160
12.803523,1776080978.932773,599616071692636368,-157
12.811215,1776080978.932773,599616071692636368,-155
12.818907,1776080978.932773,599616071692636368,-153
12.826600,1776080978.932773,599616071692636368,-150
12.834292,1776080978.932773,599616071692636368,-146
12.841984,1776080978.932773,599616071692636368,-141
12.849677,1776080978.932773,599616071692636368,-144
12.857369,1776080978.932773,599616071692636368,-141
12.865061,1776080978.932773,599616071692636368,-132
12.872754,1776080978.932773,599616071692636368,-130
12.880446,1776080978.932773,599616071692636368,-141
12.888138,1776080978.932773,599616071692636368,-148
12.895830,1776080978.932773,599616071692636368,-141
12.903523,1776080978.932773,599616071692636368,-139
12.911215,1776080978.932773,599616071692636368,-139
12.919058,1776080979.472674,599616072254325244,-132
12.926750,1776080979.472674,599616072254325244,-128
12.934442,1776080979.472674,599616072254325244,-134
12.942135,1776080979.472674,599616072254325244,-132
12.949827,1776080979.472674,599616072254325244,-128
12.957519,1776080979.472674,599616072254325244,-128
12.965212,1776080979.472674,599616072254325244,-125
12.972904,1776080979.472674,599616072254325244,-123
12.980596,1776080979.472674,599616072254325244,-130
12.988289,1776080979.472674,599616072254325244,-132
12.995981,1776080979.472674,599616072254325244,-128
13.003673,1776080979.472674,599616072254325244,-121
13.011366,1776080979.472674,599616072254325244,-123
13.019058,1776080979.472674,599616072254325244,-130
13.026750,1776080979.472674,599616072254325244,-134
13.034442,1776080979.472674,599616072254325244,-132
13.042135,1776080979.472674,599616072254325244,-132
13.049827,1776080979.472674,599616072254325244,-132
13.057519,1776080979.472674,599616072254325244,-128
13.065212,1776080979.472674,599616072254325244,-128
13.072904,1776080979.472674,599616072254325244,-125
13.080596,1776080979.472674,599616072254325244,-123
13.088289,1776080979.472674,599616072254325244,-125
13.095981,1776080979.472674,599616072254325244,-123
13.103673,1776080979.472674,599616072254325244,-114
13.111366,1776080979.472674,599616072254325244,-114
13.119058,1776080979.472674,599616072254325244,-116
13.126750,1776080979.472674,599616072254325244,-116
13.134442,1776080979.472674,599616072254325244,-114
13.142135,1776080979.472674,599616072254325244,-109
13.149827,1776080979.472674,599616072254325244,-107
13.157519,1776080979.472674,599616072254325244,-112
13.165212,1776080979.472674,599616072254325244,-105
13.172904,1776080979.472674,599616072254325244,-98
13.180596,1776080979.472674,599616072254325244,-98
13.188289,1776080979.472674,599616072254325244,-77
13.195981,1776080979.472674,599616072254325244,-13
13.203673,1776080979.472674,599616072254325244,4
13.211365,1776080979.472674,599616072254325244,-91
13.219058,1776080979.472674,599616072254325244,-178
13.226750,1776080979.472674,599616072254325244,-155
13.234442,1776080979.472674,599616072254325244,-123
13.242135,1776080979.472674,599616072254325244,-148
13.249827,1776080979.472674,599616072254325244,-162
13.257519,1776080979.472674,599616072254325244,-146
13.265212,1776080979.472674,599616072254325244,-137
13.272904,1776080979.472674,599616072254325244,-139
13.280596,1776080979.472674,599616072254325244,-196
13.288289,1776080979.472674,599616072254325244,-365
13.295981,1776080979.472674,599616072254325244,-182
13.303673,1776080979.472674,599616072254325244,107
13.311365,1776080979.472674,599616072254325244,-235
13.319058,1776080979.472674,599616072254325244,-336
13.326750,1776080979.472674,599616072254325244,-25
13.334442,1776080979.472674,599616072254325244,-109
13.342135,1776080979.472674,599616072254325244,-230
13.349827,1776080979.472674,599616072254325244,-125
13.357519,1776080979.472674,599616072254325244,-121
13.365212,1776080979.472674,599616072254325244,-176
13.372904,1776080979.472674,599616072254325244,-144
13.380596,1776080979.472674,599616072254325244,-132
13.388289,1776080979.472674,599616072254325244,-160
13.395981,1776080979.472674,599616072254325244,-146
13.403673,1776080979.472674,599616072254325244,-125
13.411366,1776080979.472674,599616072254325244,-137
13.419058,1776080979.472674,599616072254325244,-155
13.426750,1776080979.472674,599616072254325244,-171
13.434442,1776080979.472674,599616072254325244,-173
13.442135,1776080979.472674,599616072254325244,-162
13.449827,1776080979.472674,599616072254325244,-180
13.457519,1776080979.472674,599616072254325244,-192
13.465212,1776080979.472674,599616072254325244,-121
13.472904,1776080979.472674,599616072254325244,-70
13.480772,1776080980.102477,599616072816039554,-137
13.488464,1776080980.102477,599616072816039554,-171
13.496157,1776080980.102477,599616072816039554,-137
13.503849,1776080980.102477,599616072816039554,-141
13.511541,1776080980.102477,599616072816039554,-171
13.519234,1776080980.102477,599616072816039554,-169
13.526926,1776080980.102477,599616072816039554,-153
13.534618,1776080980.102477,599616072816039554,-146
13.542311,1776080980.102477,599616072816039554,-141
13.550003,1776080980.102477,599616072816039554,-137
13.557695,1776080980.102477,599616072816039554,-137
13.565387,1776080980.102477,599616072816039554,-141
13.573080,1776080980.102477,599616072816039554,-137
13.580772,1776080980.102477,599616072816039554,-130
13.588464,1776080980.102477,599616072816039554,-132
13.596157,1776080980.102477,599616072816039554,-137
13.603849,1776080980.102477,599616072816039554,-144
13.611541,1776080980.102477,599616072816039554,-148
13.619234,1776080980.102477,599616072816039554,-148
13.626926,1776080980.102477,599616072816039554,-144
13.634618,1776080980.102477,599616072816039554,-141
13.642311,1776080980.102477,599616072816039554,-144
13.650003,1776080980.102477,599616072816039554,-148
13.657695,1776080980.102477,599616072816039554,-146
13.665388,1776080980.102477,599616072816039554,-148
13.673080,1776080980.102477,599616072816039554,-150
13.680772,1776080980.102477,599616072816039554,-144
13.688464,1776080980.102477,599616072816039554,-141
13.696157,1776080980.102477,599616072816039554,-150
13.703849,1776080980.102477,599616072816039554,-150
13.711541,1776080980.102477,599616072816039554,-144
13.719234,1776080980.102477,599616072816039554,-139
13.726926,1776080980.102477,599616072816039554,-141
13.734618,1776080980.102477,599616072816039554,-139
13.742311,1776080980.102477,599616072816039554,-139
13.750003,1776080980.102477,599616072816039554,-139
13.757695,1776080980.102477,599616072816039554,-134
13.765388,1776080980.102477,599616072816039554,-134
13.773080,1776080980.102477,599616072816039554,-144
13.780772,1776080980.102477,599616072816039554,-150
13.788464,1776080980.102477,599616072816039554,-150
13.796157,1776080980.102477,599616072816039554,-155
13.803849,1776080980.102477,599616072816039554,-162
13.811541,1776080980.102477,599616072816039554,-160
13.819234,1776080980.102477,599616072816039554,-153
13.826926,1776080980.102477,599616072816039554,-157
13.834618,1776080980.102477,599616072816039554,-160
13.842311,1776080980.102477,599616072816039554,-150
13.850003,1776080980.102477,599616072816039554,-144
13.857695,1776080980.102477,599616072816039554,-130
13.865387,1776080980.102477,599616072816039554,-121
13.873080,1776080980.102477,599616072816039554,-134
13.880772,1776080980.102477,599616072816039554,-144
13.888464,1776080980.102477,599616072816039554,-128
13.896157,1776080980.102477,599616072816039554,-84
13.903849,1776080980.102477,599616072816039554,-29
13.911541,1776080980.102477,599616072816039554,-52
13.919234,1776080980.102477,599616072816039554,-164
13.926926,1776080980.102477,599616072816039554,-194
13.934618,1776080980.102477,599616072816039554,-144
13.942311,1776080980.102477,599616072816039554,-141
13.950003,1776080980.102477,599616072816039554,-155
13.957695,1776080980.102477,599616072816039554,-144
13.965387,1776080980.102477,599616072816039554,-139
13.973080,1776080980.102477,599616072816039554,-139
13.980772,1776080980.102477,599616072816039554,-160
13.988464,1776080980.102477,599616072816039554,-315
13.996157,1776080980.102477,599616072816039554,-205
14.003849,1776080980.102477,599616072816039554,102
14.011541,1776080980.102477,599616072816039554,-166
14.019234,1776080980.102477,599616072816039554,-345
14.026926,1776080980.102477,599616072816039554,-52
14.034618,1776080980.102477,599616072816039554,-64
14.042486,1776080980.641851,599616073377753862,-201
14.050179,1776080980.641851,599616073377753862,-123
14.057871,1776080980.641851,599616073377753862,-100
14.065563,1776080980.641851,599616073377753862,-153
14.073256,1776080980.641851,599616073377753862,-128
14.080948,1776080980.641851,599616073377753862,-100
14.088640,1776080980.641851,599616073377753862,-116
14.096333,1776080980.641851,599616073377753862,-114
14.104025,1776080980.641851,599616073377753862,-100
14.111717,1776080980.641851,599616073377753862,-102
14.119409,1776080980.641851,599616073377753862,-107
14.127102,1776080980.641851,599616073377753862,-98
14.134794,1776080980.641851,599616073377753862,-93
14.142486,1776080980.641851,599616073377753862,-105
14.150179,1776080980.641851,599616073377753862,-139
14.157871,1776080980.641851,599616073377753862,-153
14.165563,1776080980.641851,599616073377753862,-96
14.173256,1776080980.641851,599616073377753862,-61
14.180948,1776080980.641851,599616073377753862,-130
14.188640,1776080980.641851,599616073377753862,-162
14.196333,1776080980.641851,599616073377753862,-125
14.204025,1776080980.641851,599616073377753862,-125
14.211717,1776080980.641851,599616073377753862,-141
14.219409,1776080980.641851,599616073377753862,-137
14.227102,1776080980.641851,599616073377753862,-137
14.234794,1776080980.641851,599616073377753862,-146
14.242486,1776080980.641851,599616073377753862,-146
14.250179,1776080980.641851,599616073377753862,-141
14.257871,1776080980.641851,599616073377753862,-139
14.265563,1776080980.641851,599616073377753862,-141
14.273256,1776080980.641851,599616073377753862,-146
14.280948,1776080980.641851,599616073377753862,-148
14.288640,1776080980.641851,599616073377753862,-150
14.296333,1776080980.641851,599616073377753862,-155
14.304025,1776080980.641851,599616073377753862,-157
14.311717,1776080980.641851,599616073377753862,-162
14.319409,1776080980.641851,599616073377753862,-162
14.327102,1776080980.641851,599616073377753862,-157
14.334794,1776080980.641851,599616073377753862,-157
14.342486,1776080980.641851,599616073377753862,-155
14.350179,1776080980.641851,599616073377753862,-150
14.357871,1776080980.641851,599616073377753862,-148
14.365563,1776080980.641851,599616073377753862,-146
14.373256,1776080980.641851,599616073377753862,-146
14.380948,1776080980.641851,599616073377753862,-150
14.388640,1776080980.641851,599616073377753862,-150
14.396333,1776080980.641851,599616073377753862,-141
14.404025,1776080980.641851,599616073377753862,-139
14.411717,1776080980.641851,599616073377753862,-146
14.419410,1776080980.641851,599616073377753862,-146
14.427102,1776080980.641851,599616073377753862,-144
14.434794,1776080980.641851,599616073377753862,-139
14.442486,1776080980.641851,599616073377753862,-132
14.450179,1776080980.641851,599616073377753862,-125
14.457871,1776080980.641851,599616073377753862,-102
14.465563,1776080980.641851,599616073377753862,-50
14.473256,1776080980.641851,599616073377753862,-45
14.480948,1776080980.641851,599616073377753862,-141
14.488640,1776080980.641851,599616073377753862,-182
14.496333,1776080980.641851,599616073377753862,-132
14.504025,1776080980.641851,599616073377753862,-123
14.511717,1776080980.641851,599616073377753862,-148
14.519409,1776080980.641851,599616073377753862,-137
14.527102,1776080980.641851,599616073377753862,-123
14.534794,1776080980.641851,599616073377753862,-121
14.542486,1776080980.641851,599616073377753862,-134
14.550179,1776080980.641851,599616073377753862,-269
14.557871,1776080980.641851,599616073377753862,-192
14.565563,1776080980.641851,599616073377753862,66
14.573256,1776080980.641851,599616073377753862,-150
14.580948,1776080980.641851,599616073377753862,-283
14.588640,1776080980.641851,599616073377753862,-18
14.596333,1776080980.641851,599616073377753862,-43
14.604185,1776080981.227783,599616073939452910,-171
14.611878,1776080981.227783,599616073939452910,-89
14.619570,1776080981.227783,599616073939452910,-57
14.627262,1776080981.227783,599616073939452910,-105
14.634955,1776080981.227783,599616073939452910,-84
14.642647,1776080981.227783,599616073939452910,-57
14.650339,1776080981.227783,599616073939452910,-73
14.658032,1776080981.227783,599616073939452910,-68
14.665724,1776080981.227783,599616073939452910,-52
14.673416,1776080981.227783,599616073939452910,-48
14.681108,1776080981.227783,599616073939452910,-43
14.688801,1776080981.227783,599616073939452910,-41
14.696493,1776080981.227783,599616073939452910,-41
14.704185,1776080981.227783,599616073939452910,-48
14.711878,1776080981.227783,599616073939452910,-68
14.719570,1776080981.227783,599616073939452910,-68
14.727262,1776080981.227783,599616073939452910,-32
14.734955,1776080981.227783,599616073939452910,-57
14.742647,1776080981.227783,599616073939452910,-137
14.750339,1776080981.227783,599616073939452910,-146
14.758032,1776080981.227783,599616073939452910,-114
14.765724,1776080981.227783,599616073939452910,-128
14.773416,1776080981.227783,599616073939452910,-148
14.781108,1776080981.227783,599616073939452910,-150
14.788801,1776080981.227783,599616073939452910,-153
14.796493,1776080981.227783,599616073939452910,-153
14.804185,1776080981.227783,599616073939452910,-153
14.811878,1776080981.227783,599616073939452910,-160
14.819570,1776080981.227783,599616073939452910,-166
14.827262,1776080981.227783,599616073939452910,-164
14.834955,1776080981.227783,599616073939452910,-155
14.842647,1776080981.227783,599616073939452910,-153
14.850339,1776080981.227783,599616073939452910,-150
14.858032,1776080981.227783,599616073939452910,-146
14.865724,1776080981.227783,599616073939452910,-146
14.873416,1776080981.227783,599616073939452910,-148
14.881109,1776080981.227783,599616073939452910,-148
14.888801,1776080981.227783,599616073939452910,-146
14.896493,1776080981.227783,599616073939452910,-144
14.904185,1776080981.227783,599616073939452910,-144
14.911878,1776080981.227783,599616073939452910,-141
14.919570,1776080981.227783,599616073939452910,-141
14.927262,1776080981.227783,599616073939452910,-141
14.934955,1776080981.227783,599616073939452910,-134
14.942647,1776080981.227783,599616073939452910,-91
14.950339,1776080981.227783,599616073939452910,-34
14.958032,1776080981.227783,599616073939452910,-82
14.965724,1776080981.227783,599616073939452910,-194
14.973416,1776080981.227783,599616073939452910,-192
14.981109,1776080981.227783,599616073939452910,-146
14.988801,1776080981.227783,599616073939452910,-162
14.996493,1776080981.227783,599616073939452910,-171
15.004185,1776080981.227783,599616073939452910,-153
15.011878,1776080981.227783,599616073939452910,-150
15.019570,1776080981.227783,599616073939452910,-150
15.027262,1776080981.227783,599616073939452910,-210
15.034955,1776080981.227783,599616073939452910,-304
15.042647,1776080981.227783,599616073939452910,-66
15.050339,1776080981.227783,599616073939452910,73
15.058032,1776080981.227783,599616073939452910,-292
15.065724,1776080981.227783,599616073939452910,-251
15.073416,1776080981.227783,599616073939452910,16
15.081108,1776080981.227783,599616073939452910,-118
15.088801,1776080981.227783,599616073939452910,-178
15.096493,1776080981.227783,599616073939452910,-70
15.104185,1776080981.227783,599616073939452910,-91
15.111878,1776080981.227783,599616073939452910,-130
15.119570,1776080981.227783,599616073939452910,-93
15.127262,1776080981.227783,599616073939452910,-82
15.134955,1776080981.227783,599616073939452910,-100
15.142647,1776080981.227783,599616073939452910,-96
15.150339,1776080981.227783,599616073939452910,-80
15.158032,1776080981.227783,599616073939452910,-75
15.165874,1776080981.723128,599616074501141786,-70
15.173567,1776080981.723128,599616074501141786,-59
15.181259,1776080981.723128,599616074501141786,-57
15.188951,1776080981.723128,599616074501141786,-73
15.196644,1776080981.723128,599616074501141786,-84
15.204336,1776080981.723128,599616074501141786,-50
15.212028,1776080981.723128,599616074501141786,-38
15.219720,1776080981.723128,599616074501141786,-114
15.227413,1776080981.723128,599616074501141786,-150
15.235105,1776080981.723128,599616074501141786,-114
15.242797,1776080981.723128,599616074501141786,-109
15.250490,1776080981.723128,599616074501141786,-132
15.258182,1776080981.723128,599616074501141786,-128
15.265874,1776080981.723128,599616074501141786,-128
15.273567,1776080981.723128,599616074501141786,-137
15.281259,1776080981.723128,599616074501141786,-137
15.288951,1776080981.723128,599616074501141786,-128
15.296644,1776080981.723128,599616074501141786,-128
15.304336,1776080981.723128,599616074501141786,-130
15.312028,1776080981.723128,599616074501141786,-125
15.319721,1776080981.723128,599616074501141786,-125
15.327413,1776080981.723128,599616074501141786,-132
15.335105,1776080981.723128,599616074501141786,-128
15.342797,1776080981.723128,599616074501141786,-123
15.350490,1776080981.723128,599616074501141786,-125
15.358182,1776080981.723128,599616074501141786,-128
15.365874,1776080981.723128,599616074501141786,-132
15.373567,1776080981.723128,599616074501141786,-130
15.381259,1776080981.723128,599616074501141786,-123
15.388951,1776080981.723128,599616074501141786,-123
15.396644,1776080981.723128,599616074501141786,-123
15.404336,1776080981.723128,599616074501141786,-123
15.412028,1776080981.723128,599616074501141786,-123
15.419721,1776080981.723128,599616074501141786,-118
15.427413,1776080981.723128,599616074501141786,-114
15.435105,1776080981.723128,599616074501141786,-116
15.442797,1776080981.723128,599616074501141786,-118
15.450490,1776080981.723128,599616074501141786,-118
15.458182,1776080981.723128,599616074501141786,-116
15.465874,1776080981.723128,599616074501141786,-116
15.473567,1776080981.723128,599616074501141786,-118
15.481259,1776080981.723128,599616074501141786,-116
15.488951,1776080981.723128,599616074501141786,-114
15.496644,1776080981.723128,599616074501141786,-114
15.504336,1776080981.723128,599616074501141786,-105
15.512028,1776080981.723128,599616074501141786,-57
15.519720,1776080981.723128,599616074501141786,-20
15.527413,1776080981.723128,599616074501141786,-91
15.535105,1776080981.723128,599616074501141786,-178
15.542797,1776080981.723128,599616074501141786,-150
15.550490,1776080981.723128,599616074501141786,-116
15.558182,1776080981.723128,599616074501141786,-134
15.565874,1776080981.723128,599616074501141786,-128
15.573567,1776080981.723128,599616074501141786,-109
15.581259,1776080981.723128,599616074501141786,-112
15.588951,1776080981.723128,599616074501141786,-114
15.596644,1776080981.723128,599616074501141786,-125
15.604336,1776080981.723128,599616074501141786,-294
15.612028,1776080981.723128,599616074501141786,-217
15.619720,1776080981.723128,599616074501141786,169
15.627413,1776080981.723128,599616074501141786,-73
15.635105,1776080981.723128,599616074501141786,-384
15.642797,1776080981.723128,599616074501141786,-82
15.650490,1776080981.723128,599616074501141786,-16
15.658182,1776080981.723128,599616074501141786,-196
15.665874,1776080981.723128,599616074501141786,-132
15.673567,1776080981.723128,599616074501141786,-73
15.681259,1776080981.723128,599616074501141786,-132
15.688951,1776080981.723128,599616074501141786,-125
15.696644,1776080981.723128,599616074501141786,-91
15.704336,1776080981.723128,599616074501141786,-100
15.712028,1776080981.723128,599616074501141786,-107
15.719720,1776080981.723128,599616074501141786,-98
15.727568,1776080982.308830,599616075062835750,-98
15.735260,1776080982.308830,599616075062835750,-93
15.742953,1776080982.308830,599616075062835750,-89
15.750645,1776080982.308830,599616075062835750,-89
15.758337,1776080982.308830,599616075062835750,-93
15.766030,1776080982.308830,599616075062835750,-130
15.773722,1776080982.308830,599616075062835750,-146
15.781414,1776080982.308830,599616075062835750,-80
15.789107,1776080982.308830,599616075062835750,-57
15.796799,1776080982.308830,599616075062835750,-139
15.804491,1776080982.308830,599616075062835750,-171
15.812184,1776080982.308830,599616075062835750,-139
15.819876,1776080982.308830,599616075062835750,-144
15.827568,1776080982.308830,599616075062835750,-157
15.835261,1776080982.308830,599616075062835750,-157
15.842953,1776080982.308830,599616075062835750,-160
15.850645,1776080982.308830,599616075062835750,-160
15.858338,1776080982.308830,599616075062835750,-160
15.866030,1776080982.308830,599616075062835750,-157
15.873722,1776080982.308830,599616075062835750,-153
15.881414,1776080982.308830,599616075062835750,-146
15.889107,1776080982.308830,599616075062835750,-141
15.896799,1776080982.308830,599616075062835750,-144
15.904491,1776080982.308830,599616075062835750,-146
15.912184,1776080982.308830,599616075062835750,-139
15.919876,1776080982.308830,599616075062835750,-134
15.927568,1776080982.308830,599616075062835750,-134
15.935261,1776080982.308830,599616075062835750,-132
15.942953,1776080982.308830,599616075062835750,-134
15.950645,1776080982.308830,599616075062835750,-137
15.958337,1776080982.308830,599616075062835750,-134
15.966030,1776080982.308830,599616075062835750,-130
15.973722,1776080982.308830,599616075062835750,-130
15.981414,1776080982.308830,599616075062835750,-130
15.989107,1776080982.308830,599616075062835750,-132
15.996799,1776080982.308830,599616075062835750,-134
16.004491,1776080982.308830,599616075062835750,-137
16.012184,1776080982.308830,599616075062835750,-137
16.019876,1776080982.308830,599616075062835750,-137
16.027568,1776080982.308830,599616075062835750,-141
16.035261,1776080982.308830,599616075062835750,-146
16.042953,1776080982.308830,599616075062835750,-144
16.050645,1776080982.308830,599616075062835750,-139
16.058337,1776080982.308830,599616075062835750,-139
16.066030,1776080982.308830,599616075062835750,-139
16.073722,1776080982.308830,599616075062835750,-134
16.081414,1776080982.308830,599616075062835750,-134
16.089107,1776080982.308830,599616075062835750,-139
16.096799,1776080982.308830,599616075062835750,-134
16.104491,1776080982.308830,599616075062835750,-130
16.112184,1776080982.308830,599616075062835750,-130
16.119876,1776080982.308830,599616075062835750,-130
16.127568,1776080982.308830,599616075062835750,-134
16.135261,1776080982.308830,599616075062835750,-139
16.142953,1776080982.308830,599616075062835750,-132
16.150645,1776080982.308830,599616075062835750,-132
16.158337,1776080982.308830,599616075062835750,-134
16.166030,1776080982.308830,599616075062835750,-132
16.173722,1776080982.308830,599616075062835750,-139
16.181414,1776080982.308830,599616075062835750,-139
16.189107,1776080982.308830,599616075062835750,-134
16.196799,1776080982.308830,599616075062835750,-137
16.204491,1776080982.308830,599616075062835750,-137
16.212184,1776080982.308830,599616075062835750,-132
16.219876,1776080982.308830,599616075062835750,-132
16.227568,1776080982.308830,599616075062835750,-137
16.235260,1776080982.308830,599616075062835750,-132
16.242953,1776080982.308830,599616075062835750,-132
16.250645,1776080982.308830,599616075062835750,-132
16.258337,1776080982.308830,599616075062835750,-130
16.266030,1776080982.308830,599616075062835750,-130
16.273722,1776080982.308830,599616075062835750,-132
16.281414,1776080982.308830,599616075062835750,-130
16.289252,1776080982.937879,599616075624519538,-130
16.296944,1776080982.937879,599616075624519538,-125
16.304637,1776080982.937879,599616075624519538,-121
16.312329,1776080982.937879,599616075624519538,-121
16.320021,1776080982.937879,599616075624519538,-123
16.327714,1776080982.937879,599616075624519538,-123
16.335406,1776080982.937879,599616075624519538,-121
16.343098,1776080982.937879,599616075624519538,-128
16.350791,1776080982.937879,599616075624519538,-139
16.358483,1776080982.937879,599616075624519538,-144
16.366175,1776080982.937879,599616075624519538,-134
16.373868,1776080982.937879,599616075624519538,-128
16.381560,1776080982.937879,599616075624519538,-121
16.389252,1776080982.937879,599616075624519538,-112
16.396944,1776080982.937879,599616075624519538,-114
16.404637,1776080982.937879,599616075624519538,-121
16.412329,1776080982.937879,599616075624519538,-114
16.420021,1776080982.937879,599616075624519538,-70
16.427714,1776080982.937879,599616075624519538,0
16.435406,1776080982.937879,599616075624519538,22
16.443098,1776080982.937879,599616075624519538,-38
16.450791,1776080982.937879,599616075624519538,-139
16.458483,1776080982.937879,599616075624519538,-189
16.466175,1776080982.937879,599616075624519538,-148
16.473868,1776080982.937879,599616075624519538,-128
16.481560,1776080982.937879,599616075624519538,-150
16.489252,1776080982.937879,599616075624519538,-144
16.496944,1776080982.937879,599616075624519538,-125
16.504637,1776080982.937879,599616075624519538,-178
16.512329,1776080982.937879,599616075624519538,-363
16.520021,1776080982.937879,599616075624519538,-130
16.527714,1776080982.937879,599616075624519538,256
16.535406,1776080982.937879,599616075624519538,-176
16.543098,1776080982.937879,599616075624519538,-386
16.550791,1776080982.937879,599616075624519538,4
16.558483,1776080982.937879,599616075624519538,-43
16.566175,1776080982.937879,599616075624519538,-205
16.573868,1776080982.937879,599616075624519538,-89
16.581560,1776080982.937879,599616075624519538,-57
16.589252,1776080982.937879,599616075624519538,-123
16.596944,1776080982.937879,599616075624519538,-102
16.604637,1776080982.937879,599616075624519538,-80
16.612329,1776080982.937879,599616075624519538,-98
16.620021,1776080982.937879,599616075624519538,-93
16.627714,1776080982.937879,599616075624519538,-82
16.635406,1776080982.937879,599616075624519538,-89
16.643098,1776080982.937879,599616075624519538,-89
16.650791,1776080982.937879,599616075624519538,-82
16.658483,1776080982.937879,599616075624519538,-82
16.666175,1776080982.937879,599616075624519538,-93
16.673867,1776080982.937879,599616075624519538,-130
16.681560,1776080982.937879,599616075624519538,-155
16.689252,1776080982.937879,599616075624519538,-86
16.696944,1776080982.937879,599616075624519538,-16
16.704637,1776080982.937879,599616075624519538,-77
16.712329,1776080982.937879,599616075624519538,-130
16.720021,1776080982.937879,599616075624519538,-98
16.727714,1776080982.937879,599616075624519538,-100
16.735406,1776080982.937879,599616075624519538,-123
16.743098,1776080982.937879,599616075624519538,-116
16.750791,1776080982.937879,599616075624519538,-112
16.758483,1776080982.937879,599616075624519538,-121
16.766175,1776080982.937879,599616075624519538,-118
16.773867,1776080982.937879,599616075624519538,-114
16.781560,1776080982.937879,599616075624519538,-123
16.789252,1776080982.937879,599616075624519538,-125
16.796944,1776080982.937879,599616075624519538,-125
16.804637,1776080982.937879,599616075624519538,-128
16.812329,1776080982.937879,599616075624519538,-125
16.820021,1776080982.937879,599616075624519538,-121
16.827714,1776080982.937879,599616075624519538,-123
16.835406,1776080982.937879,599616075624519538,-125
16.843098,1776080982.937879,599616075624519538,-132
16.850966,1776080983.478282,599616076186233848,-137
16.858659,1776080983.478282,599616076186233848,-134
16.866351,1776080983.478282,599616076186233848,-132
16.874043,1776080983.478282,599616076186233848,-134
16.881736,1776080983.478282,599616076186233848,-134
16.889428,1776080983.478282,599616076186233848,-134
16.897120,1776080983.478282,599616076186233848,-132
16.904813,1776080983.478282,599616076186233848,-130
16.912505,1776080983.478282,599616076186233848,-130
16.920197,1776080983.478282,599616076186233848,-134
16.927889,1776080983.478282,599616076186233848,-139
16.935582,1776080983.478282,599616076186233848,-146
16.943274,1776080983.478282,599616076186233848,-150
16.950966,1776080983.478282,599616076186233848,-153
16.958659,1776080983.478282,599616076186233848,-153
16.966351,1776080983.478282,599616076186233848,-157
16.974043,1776080983.478282,599616076186233848,-166
16.981736,1776080983.478282,599616076186233848,-171
16.989428,1776080983.478282,599616076186233848,-169
16.997120,1776080983.478282,599616076186233848,-164
17.004813,1776080983.478282,599616076186233848,-164
17.012505,1776080983.478282,599616076186233848,-160
17.020197,1776080983.478282,599616076186233848,-155
17.027889,1776080983.478282,599616076186233848,-162
17.035582,1776080983.478282,599616076186233848,-162
17.043274,1776080983.478282,599616076186233848,-155
17.050966,1776080983.478282,599616076186233848,-155
17.058659,1776080983.478282,599616076186233848,-155
17.066351,1776080983.478282,599616076186233848,-157
17.074043,1776080983.478282,599616076186233848,-164
17.081736,1776080983.478282,599616076186233848,-160
17.089428,1776080983.478282,599616076186233848,-150
17.097120,1776080983.478282,599616076186233848,-153
17.104813,1776080983.478282,599616076186233848,-155
17.112505,1776080983.478282,599616076186233848,-150
17.120197,1776080983.478282,599616076186233848,-148
17.127890,1776080983.478282,599616076186233848,-146
17.135582,1776080983.478282,599616076186233848,-139
17.143274,1776080983.478282,599616076186233848,-139
17.150966,1776080983.478282,599616076186233848,-141
17.158659,1776080983.478282,599616076186233848,-139
17.166351,1776080983.478282,599616076186233848,-137
17.174043,1776080983.478282,599616076186233848,-134
17.181736,1776080983.478282,599616076186233848,-137
17.189428,1776080983.478282,599616076186233848,-134
17.197120,1776080983.478282,599616076186233848,-132
17.204813,1776080983.478282,599616076186233848,-130
17.212505,1776080983.478282,599616076186233848,-132
17.220197,1776080983.478282,599616076186233848,-134
17.227890,1776080983.478282,599616076186233848,-134
17.235582,1776080983.478282,599616076186233848,-137
17.243274,1776080983.478282,599616076186233848,-139
17.250966,1776080983.478282,599616076186233848,-141
17.258659,1776080983.478282,599616076186233848,-139
17.266351,1776080983.478282,599616076186233848,-100
17.274043,1776080983.478282,599616076186233848,-29
17.281736,1776080983.478282,599616076186233848,-2
17.289428,1776080983.478282,599616076186233848,-75
17.297120,1776080983.478282,599616076186233848,-185
17.304813,1776080983.478282,599616076186233848,-210
17.312505,1776080983.478282,599616076186233848,-164
17.320197,1776080983.478282,599616076186233848,-155
17.327889,1776080983.478282,599616076186233848,-171
17.335582,1776080983.478282,599616076186233848,-164
17.343274,1776080983.478282,599616076186233848,-157
17.350966,1776080983.478282,599616076186233848,-173
17.358659,1776080983.478282,599616076186233848,-313
17.366351,1776080983.478282,599616076186233848,-322
17.374043,1776080983.478282,599616076186233848,43
17.381736,1776080983.478282,599616076186233848,-6
17.389428,1776080983.478282,599616076186233848,-375
17.397120,1776080983.478282,599616076186233848,-178
17.404813,1776080983.478282,599616076186233848,0
17.412660,1776080984.019641,599616076747927810,-171
17.420353,1776080984.019641,599616076747927810,-164
17.428045,1776080984.019641,599616076747927810,-84
17.435737,1776080984.019641,599616076747927810,-132
17.443430,1776080984.019641,599616076747927810,-141
17.451122,1776080984.019641,599616076747927810,-100
17.458814,1776080984.019641,599616076747927810,-109
17.466506,1776080984.019641,599616076747927810,-125
17.474199,1776080984.019641,599616076747927810,-118
17.481891,1776080984.019641,599616076747927810,-114
17.489583,1776080984.019641,599616076747927810,-116
17.497276,1776080984.019641,599616076747927810,-114
17.504968,1776080984.019641,599616076747927810,-109
17.512660,1776080984.019641,599616076747927810,-116
17.520353,1776080984.019641,599616076747927810,-146
17.528045,1776080984.019641,599616076747927810,-185
17.535737,1776080984.019641,599616076747927810,-150
17.543430,1776080984.019641,599616076747927810,-64
17.551122,1776080984.019641,599616076747927810,-80
17.558814,1776080984.019641,599616076747927810,-153
17.566507,1776080984.019641,599616076747927810,-146
17.574199,1776080984.019641,599616076747927810,-121
17.581891,1776080984.019641,599616076747927810,-134
17.589583,1776080984.019641,599616076747927810,-139
17.597276,1776080984.019641,599616076747927810,-128
17.604968,1776080984.019641,599616076747927810,-130
17.612660,1776080984.019641,599616076747927810,-137
17.620353,1776080984.019641,599616076747927810,-137
17.628045,1776080984.019641,599616076747927810,-134
17.635737,1776080984.019641,599616076747927810,-132
17.643430,1776080984.019641,599616076747927810,-134
17.651122,1776080984.019641,599616076747927810,-141
17.658814,1776080984.019641,599616076747927810,-148
17.666507,1776080984.019641,599616076747927810,-148
17.674199,1776080984.019641,599616076747927810,-144
17.681891,1776080984.019641,599616076747927810,-141
17.689583,1776080984.019641,599616076747927810,-144
17.697276,1776080984.019641,599616076747927810,-144
17.704968,1776080984.019641,599616076747927810,-146
17.712660,1776080984.019641,599616076747927810,-148
