time,t_wall,t_device_ns,ecg
0.000000,1775665503.291790,599616438952514732,4268
0.007692,1775665503.291790,599616438952514732,5888
0.015385,1775665503.291790,599616438952514732,16
0.023077,1775665503.291790,599616438952514732,3992
0.030769,1775665503.291790,599616438952514732,13056
0.038461,1775665503.291790,599616438952514732,15
0.046154,1775665503.291790,599616438952514732,3753
0.053846,1775665503.291790,599616438952514732,2048
0.061538,1775665503.291790,599616438952514732,14
0.069231,1775665503.291790,599616438952514732,3428
0.076923,1775665503.291790,599616438952514732,-13824
0.084615,1775665503.291790,599616438952514732,12
0.092308,1775665503.291790,599616438952514732,3148
0.100000,1775665503.291790,599616438952514732,-11776
0.107692,1775665503.291790,599616438952514732,11
0.115385,1775665503.291790,599616438952514732,2883
0.123077,1775665503.291790,599616438952514732,-12288
0.130769,1775665503.291790,599616438952514732,10
0.138461,1775665503.291790,599616438952514732,2680
0.146154,1775665503.291790,599616438952514732,-6912
0.153846,1775665503.291790,599616438952514732,9
0.161538,1775665503.291790,599616438952514732,2387
0.169231,1775665503.291790,599616438952514732,-1536
0.176923,1775665503.291790,599616438952514732,8
0.184615,1775665503.291790,599616438952514732,2210
0.192308,1775665503.291790,599616438952514732,18944
0.200000,1775665503.291790,599616438952514732,8
0.207692,1775665503.291790,599616438952514732,2027
0.215385,1775665503.291790,599616438952514732,28416
0.223077,1775665503.291790,599616438952514732,7
0.230769,1775665503.291790,599616438952514732,1804
0.238461,1775665503.291790,599616438952514732,-15360
0.246154,1775665503.291790,599616438952514732,6
0.253846,1775665503.291790,599616438952514732,1635
0.261538,1775665503.291790,599616438952514732,-2048
0.269231,1775665503.291790,599616438952514732,5
0.276923,1775665503.291790,599616438952514732,1456
0.284615,1775665503.291790,599616438952514732,-9984
0.292308,1775665503.291790,599616438952514732,5
0.300000,1775665503.291790,599616438952514732,1723
0.307692,1775665503.291790,599616438952514732,12800
0.315385,1775665503.291790,599616438952514732,7
0.323077,1775665503.291790,599616438952514732,1391
0.330769,1775665503.291790,599616438952514732,-27904
0.338462,1775665503.291790,599616438952514732,2
0.346154,1775665503.291790,599616438952514732,465
0.353846,1775665503.291790,599616438952514732,-3584
0.361538,1775665503.291790,599616438952514732,2
0.369231,1775665503.291790,599616438952514732,824
0.376923,1775665503.291790,599616438952514732,-28416
0.384615,1775665503.291790,599616438952514732,2
0.392308,1775665503.291790,599616438952514732,607
0.400000,1775665503.291790,599616438952514732,19200
0.407692,1775665503.291790,599616438952514732,2
0.415385,1775665503.291790,599616438952514732,492
0.423077,1775665503.291790,599616438952514732,-20736
0.430769,1775665503.291790,599616438952514732,1
0.438462,1775665503.291790,599616438952514732,411
0.446154,1775665503.291790,599616438952514732,25088
0.453846,1775665503.291790,599616438952514732,1
0.461538,1775665503.291790,599616438952514732,293
0.469231,1775665503.291790,599616438952514732,-2560
0.476923,1775665503.291790,599616438952514732,0
0.484615,1775665503.291790,599616438952514732,194
0.492308,1775665503.291790,599616438952514732,-29184
0.500000,1775665503.291790,599616438952514732,0
0.507692,1775665503.291790,599616438952514732,97
0.515385,1775665503.291790,599616438952514732,11520
0.523077,1775665503.291790,599616438952514732,0
0.530769,1775665503.291790,599616438952514732,-11
0.538461,1775665503.291790,599616438952514732,-15105
0.546154,1775665503.291790,599616438952514732,-1
0.553846,1775665503.291790,599616438952514732,-103
0.561538,1775665503.291790,599616438952514732,28927
0.569231,1775665503.291790,599616438952514732,-1
0.576923,1775665503.291790,599616438952514732,-176
0.584615,1775665503.291790,599616438952514732,13823
0.592308,1775665503.291790,599616438952514732,-1
0.600000,1775665503.291790,599616438952514732,-228
0.607692,1775665503.291790,599616438952514732,1279
0.615385,1775665503.291790,599616438952514732,-1
0.623077,1775665503.291790,599616438952514732,-264
0.630769,1775665503.291790,599616438952514732,-5889
0.638461,1775665503.291790,599616438952514732,-2
0.646154,1775665503.291790,599616438952514732,-309
0.653846,1775665503.291790,599616438952514732,-18433
0.661538,1775665503.291790,599616438952514732,-2
0.669231,1775665503.291790,599616438952514732,-354
0.676923,1775665503.291790,599616438952514732,27903
0.684615,1775665503.291790,599616438952514732,-2
0.692308,1775665503.291790,599616438952514732,-451
0.700000,1775665503.291790,599616438952514732,10751
0.707692,1775665503.291790,599616438952514732,-2
0.715385,1775665503.291790,599616438952514732,-512
0.723077,1775665503.291790,599616438952514732,-21761
0.730769,1775665503.291790,599616438952514732,-3
0.738461,1775665503.291790,599616438952514732,-691
0.746154,1775665503.291790,599616438952514732,3327
0.753846,1775665503.291790,599616438952514732,-3
0.761538,1775665503.291790,599616438952514732,-776
0.769231,1775665503.291790,599616438952514732,-7681
0.776923,1775665503.291790,599616438952514732,-4
0.784615,1775665503.291790,599616438952514732,-858
0.792308,1775665503.291790,599616438952514732,31743
0.800000,1775665503.291790,599616438952514732,-4
0.807692,1775665503.291790,599616438952514732,-914
0.815385,1775665503.291790,599616438952514732,23295
0.823077,1775665503.291790,599616438952514732,-4
0.830769,1775665503.291790,599616438952514732,-943
0.561658,1775665503.874818,599616439514173090,-934
0.569351,1775665503.874818,599616439514173090,20991
0.577043,1775665503.874818,599616439514173090,-4
0.584735,1775665503.874818,599616439514173090,-968
0.592428,1775665503.874818,599616439514173090,12287
0.600120,1775665503.874818,599616439514173090,-4
0.607812,1775665503.874818,599616439514173090,-982
0.615505,1775665503.874818,599616439514173090,7679
0.623197,1775665503.874818,599616439514173090,-4
0.630889,1775665503.874818,599616439514173090,-1009
0.638581,1775665503.874818,599616439514173090,-513
0.646274,1775665503.874818,599616439514173090,-5
0.653966,1775665503.874818,599616439514173090,-1081
0.661658,1775665503.874818,599616439514173090,-30465
0.669351,1775665503.874818,599616439514173090,-5
0.677043,1775665503.874818,599616439514173090,-1117
0.684735,1775665503.874818,599616439514173090,-1793
0.692428,1775665503.874818,599616439514173090,-5
0.700120,1775665503.874818,599616439514173090,-1013
0.707812,1775665503.874818,599616439514173090,-2305
0.715505,1775665503.874818,599616439514173090,-5
0.723197,1775665503.874818,599616439514173090,-1032
0.730889,1775665503.874818,599616439514173090,-2817
0.738581,1775665503.874818,599616439514173090,-5
0.746274,1775665503.874818,599616439514173090,-1045
0.753966,1775665503.874818,599616439514173090,-4609
0.761658,1775665503.874818,599616439514173090,-5
0.769351,1775665503.874818,599616439514173090,-1052
0.777043,1775665503.874818,599616439514173090,-12545
0.784735,1775665503.874818,599616439514173090,-5
0.792428,1775665503.874818,599616439514173090,-1099
0.800120,1775665503.874818,599616439514173090,-24321
0.807812,1775665503.874818,599616439514173090,-5
0.815504,1775665503.874818,599616439514173090,-1124
0.823197,1775665503.874818,599616439514173090,-27137
0.830889,1775665503.874818,599616439514173090,-5
0.838581,1775665503.874818,599616439514173090,-1149
0.846274,1775665503.874818,599616439514173090,27903
0.853966,1775665503.874818,599616439514173090,-5
0.861658,1775665503.874818,599616439514173090,-1199
0.869351,1775665503.874818,599616439514173090,17663
0.877043,1775665503.874818,599616439514173090,-5
0.884735,1775665503.874818,599616439514173090,-1214
0.892428,1775665503.874818,599616439514173090,14079
0.900120,1775665503.874818,599616439514173090,-5
0.907812,1775665503.874818,599616439514173090,-1242
0.915504,1775665503.874818,599616439514173090,3839
0.923197,1775665503.874818,599616439514173090,-5
0.930889,1775665503.874818,599616439514173090,-1321
0.938581,1775665503.874818,599616439514173090,-14849
0.946274,1775665503.874818,599616439514173090,-6
0.953966,1775665503.874818,599616439514173090,-1291
0.961658,1775665503.874818,599616439514173090,3071
0.969351,1775665503.874818,599616439514173090,-5
0.977043,1775665503.874818,599616439514173090,-1284
0.984735,1775665503.874818,599616439514173090,-3329
0.992428,1775665503.874818,599616439514173090,-6
1.000120,1775665503.874818,599616439514173090,-1309
1.007812,1775665503.874818,599616439514173090,-10753
1.015504,1775665503.874818,599616439514173090,-6
1.023197,1775665503.874818,599616439514173090,-1327
1.030889,1775665503.874818,599616439514173090,-10241
1.038581,1775665503.874818,599616439514173090,-6
1.046274,1775665503.874818,599616439514173090,-1307
1.053966,1775665503.874818,599616439514173090,-9473
1.061658,1775665503.874818,599616439514173090,-6
1.069351,1775665503.874818,599616439514173090,-1343
1.077043,1775665503.874818,599616439514173090,-13057
1.084735,1775665503.874818,599616439514173090,-6
1.092428,1775665503.874818,599616439514173090,-1312
1.100120,1775665503.874818,599616439514173090,-10753
1.107812,1775665503.874818,599616439514173090,-6
1.115505,1775665503.874818,599616439514173090,-1336
1.123197,1775665503.874818,599616439514173090,-18177
1.130889,1775665503.874818,599616439514173090,-6
1.138581,1775665503.874818,599616439514173090,-1373
1.146274,1775665503.874818,599616439514173090,-24577
1.153966,1775665503.874818,599616439514173090,-6
1.161658,1775665503.874818,599616439514173090,-1397
1.169351,1775665503.874818,599616439514173090,29439
1.177043,1775665503.874818,599616439514173090,-6
1.184735,1775665503.874818,599616439514173090,-1393
1.192428,1775665503.874818,599616439514173090,-29185
1.200120,1775665503.874818,599616439514173090,-6
1.207812,1775665503.874818,599616439514173090,-1447
1.215505,1775665503.874818,599616439514173090,32255
1.223197,1775665503.874818,599616439514173090,-6
1.230889,1775665503.874818,599616439514173090,-1336
1.238581,1775665503.874818,599616439514173090,-12545
1.246274,1775665503.874818,599616439514173090,-6
1.253966,1775665503.874818,599616439514173090,-1323
1.261658,1775665503.874818,599616439514173090,-5633
1.269351,1775665503.874818,599616439514173090,-6
1.277043,1775665503.874818,599616439514173090,-1296
1.284735,1775665503.874818,599616439514173090,1535
1.292428,1775665503.874818,599616439514173090,-5
1.300120,1775665503.874818,599616439514173090,-1273
1.307812,1775665503.874818,599616439514173090,-6657
1.315504,1775665503.874818,599616439514173090,-6
1.323197,1775665503.874818,599616439514173090,-1325
1.330889,1775665503.874818,599616439514173090,-14849
1.338581,1775665503.874818,599616439514173090,-6
1.346274,1775665503.874818,599616439514173090,-1364
1.353966,1775665503.874818,599616439514173090,-20481
1.361658,1775665503.874818,599616439514173090,-6
1.369351,1775665503.874818,599616439514173090,-1364
1.377043,1775665503.874818,599616439514173090,-28161
1.384735,1775665503.874818,599616439514173090,-6
1.392428,1775665503.874818,599616439514173090,-1418
1.123317,1775665504.415242,599616440075831448,-1424
1.131009,1775665504.415242,599616440075831448,30463
1.138701,1775665504.415242,599616440075831448,-6
1.146394,1775665504.415242,599616440075831448,-1400
1.154086,1775665504.415242,599616440075831448,-24577
1.161778,1775665504.415242,599616440075831448,-6
1.169471,1775665504.415242,599616440075831448,-1366
1.177163,1775665504.415242,599616440075831448,-25857
1.184855,1775665504.415242,599616440075831448,-6
1.192547,1775665504.415242,599616440075831448,-1436
1.200240,1775665504.415242,599616440075831448,24831
1.207932,1775665504.415242,599616440075831448,-6
1.215624,1775665504.415242,599616440075831448,-1368
1.223317,1775665504.415242,599616440075831448,-13057
1.231009,1775665504.415242,599616440075831448,-6
1.238701,1775665504.415242,599616440075831448,-1323
1.246394,1775665504.415242,599616440075831448,19455
1.254086,1775665504.415242,599616440075831448,-5
1.261778,1775665504.415242,599616440075831448,-943
1.269471,1775665504.415242,599616440075831448,3327
1.277163,1775665504.415242,599616440075831448,-3
1.284855,1775665504.415242,599616440075831448,-1061
1.292547,1775665504.415242,599616440075831448,30719
1.300240,1775665504.415242,599616440075831448,-7
1.307932,1775665504.415242,599616440075831448,-1811
1.315624,1775665504.415242,599616440075831448,20223
1.323317,1775665504.415242,599616440075831448,-6
1.331009,1775665504.415242,599616440075831448,-1275
1.338701,1775665504.415242,599616440075831448,-7937
1.346394,1775665504.415242,599616440075831448,-6
1.354086,1775665504.415242,599616440075831448,-1282
1.361778,1775665504.415242,599616440075831448,11775
1.369471,1775665504.415242,599616440075831448,-5
1.377163,1775665504.415242,599616440075831448,-1251
1.384855,1775665504.415242,599616440075831448,4863
1.392547,1775665504.415242,599616440075831448,-5
1.400240,1775665504.415242,599616440075831448,-1266
1.407932,1775665504.415242,599616440075831448,3071
1.415624,1775665504.415242,599616440075831448,-5
1.423317,1775665504.415242,599616440075831448,-1244
1.431009,1775665504.415242,599616440075831448,14847
1.438701,1775665504.415242,599616440075831448,-5
1.446394,1775665504.415242,599616440075831448,-1230
1.454086,1775665504.415242,599616440075831448,2047
1.461778,1775665504.415242,599616440075831448,-5
1.469471,1775665504.415242,599616440075831448,-1314
1.477163,1775665504.415242,599616440075831448,-2049
1.484855,1775665504.415242,599616440075831448,-6
1.492548,1775665504.415242,599616440075831448,-1223
1.500240,1775665504.415242,599616440075831448,22783
1.507932,1775665504.415242,599616440075831448,-5
1.515624,1775665504.415242,599616440075831448,-1178
1.523317,1775665504.415242,599616440075831448,29695
1.531009,1775665504.415242,599616440075831448,-5
1.538701,1775665504.415242,599616440075831448,-1151
1.546394,1775665504.415242,599616440075831448,-28161
1.554086,1775665504.415242,599616440075831448,-5
1.561778,1775665504.415242,599616440075831448,-1108
1.569471,1775665504.415242,599616440075831448,-12545
1.577163,1775665504.415242,599616440075831448,-5
1.584855,1775665504.415242,599616440075831448,-1052
1.592548,1775665504.415242,599616440075831448,-5121
1.600240,1775665504.415242,599616440075831448,-5
1.607932,1775665504.415242,599616440075831448,-1032
1.615624,1775665504.415242,599616440075831448,5375
1.623317,1775665504.415242,599616440075831448,-4
1.631009,1775665504.415242,599616440075831448,-1002
1.638701,1775665504.415242,599616440075831448,-1
1.646394,1775665504.415242,599616440075831448,-5
1.654086,1775665504.415242,599616440075831448,-1020
1.661778,1775665504.415242,599616440075831448,3071
1.669471,1775665504.415242,599616440075831448,-4
1.677163,1775665504.415242,599616440075831448,-1047
1.684855,1775665504.415242,599616440075831448,-13825
1.692547,1775665504.415242,599616440075831448,-5
1.700240,1775665504.415242,599616440075831448,-1090
1.707932,1775665504.415242,599616440075831448,-23041
1.715624,1775665504.415242,599616440075831448,-5
1.723317,1775665504.415242,599616440075831448,-1174
1.731009,1775665504.415242,599616440075831448,10751
1.738701,1775665504.415242,599616440075831448,-5
1.746394,1775665504.415242,599616440075831448,-1255
1.754086,1775665504.415242,599616440075831448,14847
1.761778,1775665504.415242,599616440075831448,-5
1.769471,1775665504.415242,599616440075831448,-1208
1.777163,1775665504.415242,599616440075831448,17663
1.784855,1775665504.415242,599616440075831448,-5
1.792547,1775665504.415242,599616440075831448,-1192
1.800240,1775665504.415242,599616440075831448,29695
1.807932,1775665504.415242,599616440075831448,-5
1.815624,1775665504.415242,599616440075831448,-1149
1.823317,1775665504.415242,599616440075831448,-27649
1.831009,1775665504.415242,599616440075831448,-5
1.838701,1775665504.415242,599616440075831448,-1122
1.846394,1775665504.415242,599616440075831448,-23553
1.854086,1775665504.415242,599616440075831448,-5
1.861778,1775665504.415242,599616440075831448,-1104
1.869471,1775665504.415242,599616440075831448,-13313
1.877163,1775665504.415242,599616440075831448,-5
1.884855,1775665504.415242,599616440075831448,-1059
1.892547,1775665504.415242,599616440075831448,-6401
1.900240,1775665504.415242,599616440075831448,-5
1.907932,1775665504.415242,599616440075831448,-1029
1.915624,1775665504.415242,599616440075831448,1791
1.923317,1775665504.415242,599616440075831448,-4
1.931009,1775665504.415242,599616440075831448,-1050
1.938701,1775665504.415242,599616440075831448,-11521
1.946394,1775665504.415242,599616440075831448,-5
1.954086,1775665504.415242,599616440075831448,-1018
1.684955,1775665504.954830,599616440637469462,-977
1.692647,1775665504.954830,599616440637469462,12287
1.700339,1775665504.954830,599616440637469462,-4
1.708032,1775665504.954830,599616440637469462,-966
1.715724,1775665504.954830,599616440637469462,17919
1.723416,1775665504.954830,599616440637469462,-4
1.731109,1775665504.954830,599616440637469462,-953
1.738801,1775665504.954830,599616440637469462,20991
1.746493,1775665504.954830,599616440637469462,-4
1.754185,1775665504.954830,599616440637469462,-932
1.761878,1775665504.954830,599616440637469462,26623
1.769570,1775665504.954830,599616440637469462,-4
1.777262,1775665504.954830,599616440637469462,-925
1.784955,1775665504.954830,599616440637469462,15103
1.792647,1775665504.954830,599616440637469462,-4
1.800339,1775665504.954830,599616440637469462,-971
1.808032,1775665504.954830,599616440637469462,26111
1.815724,1775665504.954830,599616440637469462,-4
1.823416,1775665504.954830,599616440637469462,-905
1.831109,1775665504.954830,599616440637469462,29439
1.838801,1775665504.954830,599616440637469462,-4
1.846493,1775665504.954830,599616440637469462,-898
1.854185,1775665504.954830,599616440637469462,-32001
1.861878,1775665504.954830,599616440637469462,-4
1.869570,1775665504.954830,599616440637469462,-894
1.877262,1775665504.954830,599616440637469462,-28929
1.884955,1775665504.954830,599616440637469462,-4
1.892647,1775665504.954830,599616440637469462,-880
1.900339,1775665504.954830,599616440637469462,-28417
1.908032,1775665504.954830,599616440637469462,-4
1.915724,1775665504.954830,599616440637469462,-878
1.923416,1775665504.954830,599616440637469462,-28929
1.931109,1775665504.954830,599616440637469462,-4
1.938801,1775665504.954830,599616440637469462,-885
1.946493,1775665504.954830,599616440637469462,-28417
1.954185,1775665504.954830,599616440637469462,-4
1.961878,1775665504.954830,599616440637469462,-873
1.969570,1775665504.954830,599616440637469462,-25089
1.977262,1775665504.954830,599616440637469462,-4
1.984955,1775665504.954830,599616440637469462,-889
1.992647,1775665504.954830,599616440637469462,26111
2.000339,1775665504.954830,599616440637469462,-4
2.008032,1775665504.954830,599616440637469462,-901
2.015724,1775665504.954830,599616440637469462,-23809
2.023416,1775665504.954830,599616440637469462,-4
2.031109,1775665504.954830,599616440637469462,-860
2.038801,1775665504.954830,599616440637469462,-22017
2.046493,1775665504.954830,599616440637469462,-4
2.054186,1775665504.954830,599616440637469462,-844
2.061878,1775665504.954830,599616440637469462,-19713
2.069570,1775665504.954830,599616440637469462,-4
2.077262,1775665504.954830,599616440637469462,-837
2.084955,1775665504.954830,599616440637469462,-15105
2.092647,1775665504.954830,599616440637469462,-4
2.100339,1775665504.954830,599616440637469462,-835
2.108032,1775665504.954830,599616440637469462,-21505
2.115724,1775665504.954830,599616440637469462,-4
2.123416,1775665504.954830,599616440637469462,-864
2.131109,1775665504.954830,599616440637469462,-18177
2.138801,1775665504.954830,599616440637469462,-4
2.146493,1775665504.954830,599616440637469462,-794
2.154186,1775665504.954830,599616440637469462,-1281
2.161878,1775665504.954830,599616440637469462,-4
2.169570,1775665504.954830,599616440637469462,-767
2.177262,1775665504.954830,599616440637469462,-3585
2.184955,1775665504.954830,599616440637469462,-4
2.192647,1775665504.954830,599616440637469462,-833
2.200339,1775665504.954830,599616440637469462,-20481
2.208032,1775665504.954830,599616440637469462,-4
2.215724,1775665504.954830,599616440637469462,-806
2.223416,1775665504.954830,599616440637469462,-6401
2.231109,1775665504.954830,599616440637469462,-4
2.238801,1775665504.954830,599616440637469462,-817
2.246493,1775665504.954830,599616440637469462,-13569
2.254185,1775665504.954830,599616440637469462,-4
2.261878,1775665504.954830,599616440637469462,-819
2.269570,1775665504.954830,599616440637469462,-12289
2.277262,1775665504.954830,599616440637469462,-4
2.284955,1775665504.954830,599616440637469462,-803
2.292647,1775665504.954830,599616440637469462,-8705
2.300339,1775665504.954830,599616440637469462,-4
2.308032,1775665504.954830,599616440637469462,-817
2.315724,1775665504.954830,599616440637469462,-11009
2.323416,1775665504.954830,599616440637469462,-4
2.331109,1775665504.954830,599616440637469462,-797
2.338801,1775665504.954830,599616440637469462,-4097
2.346493,1775665504.954830,599616440637469462,-4
2.354185,1775665504.954830,599616440637469462,-772
2.361878,1775665504.954830,599616440637469462,-257
2.369570,1775665504.954830,599616440637469462,-4
2.377262,1775665504.954830,599616440637469462,-767
2.384955,1775665504.954830,599616440637469462,3327
2.392647,1775665504.954830,599616440637469462,-3
2.400339,1775665504.954830,599616440637469462,-738
2.408032,1775665504.954830,599616440637469462,-29953
2.415724,1775665504.954830,599616440637469462,-3
2.423416,1775665504.954830,599616440637469462,-336
2.431109,1775665504.954830,599616440637469462,-23809
2.438801,1775665504.954830,599616440637469462,-1
2.446493,1775665504.954830,599616440637469462,-401
2.454185,1775665504.954830,599616440637469462,-20737
2.461878,1775665504.954830,599616440637469462,-5
2.469570,1775665504.954830,599616440637469462,-1377
2.477262,1775665504.954830,599616440637469462,-2305
2.484955,1775665504.954830,599616440637469462,-5
2.492647,1775665504.954830,599616440637469462,-754
2.500339,1775665504.954830,599616440637469462,1535
2.508032,1775665504.954830,599616440637469462,-3
2.515724,1775665504.954830,599616440637469462,-763
2.246608,1775665505.539944,599616441199122734,-720
2.254300,1775665505.539944,599616441199122734,10239
2.261993,1775665505.539944,599616441199122734,-3
2.269685,1775665505.539944,599616441199122734,-729
2.277377,1775665505.539944,599616441199122734,17151
2.285069,1775665505.539944,599616441199122734,-3
2.292762,1775665505.539944,599616441199122734,-702
2.300454,1775665505.539944,599616441199122734,13055
2.308146,1775665505.539944,599616441199122734,-3
2.315839,1775665505.539944,599616441199122734,-731
2.323531,1775665505.539944,599616441199122734,8447
2.331223,1775665505.539944,599616441199122734,-3
2.338916,1775665505.539944,599616441199122734,-713
2.346608,1775665505.539944,599616441199122734,19967
2.354300,1775665505.539944,599616441199122734,-3
2.361993,1775665505.539944,599616441199122734,-686
2.369685,1775665505.539944,599616441199122734,24063
2.377377,1775665505.539944,599616441199122734,-3
2.385069,1775665505.539944,599616441199122734,-666
2.392762,1775665505.539944,599616441199122734,25855
2.400454,1775665505.539944,599616441199122734,-3
2.408146,1775665505.539944,599616441199122734,-659
2.415839,1775665505.539944,599616441199122734,-30465
2.423531,1775665505.539944,599616441199122734,-3
2.431223,1775665505.539944,599616441199122734,-616
2.438916,1775665505.539944,599616441199122734,-27649
2.446608,1775665505.539944,599616441199122734,-3
2.454300,1775665505.539944,599616441199122734,-630
2.461993,1775665505.539944,599616441199122734,-23553
2.469685,1775665505.539944,599616441199122734,-3
2.477377,1775665505.539944,599616441199122734,-551
2.485070,1775665505.539944,599616441199122734,-1025
2.492762,1775665505.539944,599616441199122734,-3
2.500454,1775665505.539944,599616441199122734,-505
2.508146,1775665505.539944,599616441199122734,4863
2.515839,1775665505.539944,599616441199122734,-2
2.523531,1775665505.539944,599616441199122734,-490
2.531223,1775665505.539944,599616441199122734,6655
2.538916,1775665505.539944,599616441199122734,-2
2.546608,1775665505.539944,599616441199122734,-487
2.554300,1775665505.539944,599616441199122734,3071
2.561993,1775665505.539944,599616441199122734,-2
2.569685,1775665505.539944,599616441199122734,-537
2.577377,1775665505.539944,599616441199122734,-21249
2.585070,1775665505.539944,599616441199122734,-3
2.592762,1775665505.539944,599616441199122734,-654
2.600454,1775665505.539944,599616441199122734,21247
2.608146,1775665505.539944,599616441199122734,-3
2.615839,1775665505.539944,599616441199122734,-700
2.623531,1775665505.539944,599616441199122734,14335
2.631223,1775665505.539944,599616441199122734,-3
2.638916,1775665505.539944,599616441199122734,-722
2.646608,1775665505.539944,599616441199122734,9727
2.654300,1775665505.539944,599616441199122734,-3
2.661993,1775665505.539944,599616441199122734,-733
2.669685,1775665505.539944,599616441199122734,9727
2.677377,1775665505.539944,599616441199122734,-3
2.685070,1775665505.539944,599616441199122734,-722
2.692762,1775665505.539944,599616441199122734,12543
2.700454,1775665505.539944,599616441199122734,-3
2.708146,1775665505.539944,599616441199122734,-720
2.715839,1775665505.539944,599616441199122734,10239
2.723531,1775665505.539944,599616441199122734,-3
2.731223,1775665505.539944,599616441199122734,-727
2.738916,1775665505.539944,599616441199122734,19455
2.746608,1775665505.539944,599616441199122734,-3
2.754300,1775665505.539944,599616441199122734,-668
2.761993,1775665505.539944,599616441199122734,23551
2.769685,1775665505.539944,599616441199122734,-3
2.777377,1775665505.539944,599616441199122734,-672
2.785069,1775665505.539944,599616441199122734,29951
2.792762,1775665505.539944,599616441199122734,-3
2.800454,1775665505.539944,599616441199122734,-636
2.808146,1775665505.539944,599616441199122734,-26369
2.815839,1775665505.539944,599616441199122734,-3
2.823531,1775665505.539944,599616441199122734,-605
2.831223,1775665505.539944,599616441199122734,-22273
2.838916,1775665505.539944,599616441199122734,-3
2.846608,1775665505.539944,599616441199122734,-593
2.854300,1775665505.539944,599616441199122734,-19969
2.861993,1775665505.539944,599616441199122734,-3
2.869685,1775665505.539944,599616441199122734,-584
2.877377,1775665505.539944,599616441199122734,-14337
2.885069,1775665505.539944,599616441199122734,-3
2.892762,1775665505.539944,599616441199122734,-562
2.900454,1775665505.539944,599616441199122734,-12545
2.908146,1775665505.539944,599616441199122734,-3
2.915839,1775665505.539944,599616441199122734,-560
2.923531,1775665505.539944,599616441199122734,-12545
2.931223,1775665505.539944,599616441199122734,-3
2.938916,1775665505.539944,599616441199122734,-560
2.946608,1775665505.539944,599616441199122734,-8961
2.954300,1775665505.539944,599616441199122734,-3
2.961993,1775665505.539944,599616441199122734,-544
2.969685,1775665505.539944,599616441199122734,-7169
2.977377,1775665505.539944,599616441199122734,-3
2.985070,1775665505.539944,599616441199122734,-553
2.992762,1775665505.539944,599616441199122734,-15873
3.000454,1775665505.539944,599616441199122734,-3
3.008146,1775665505.539944,599616441199122734,-564
3.015839,1775665505.539944,599616441199122734,-6657
3.023531,1775665505.539944,599616441199122734,-3
3.031223,1775665505.539944,599616441199122734,-535
3.038916,1775665505.539944,599616441199122734,-4865
3.046608,1775665505.539944,599616441199122734,-3
3.054300,1775665505.539944,599616441199122734,-530
3.061993,1775665505.539944,599616441199122734,-5633
3.069685,1775665505.539944,599616441199122734,-3
3.077377,1775665505.539944,599616441199122734,-526
2.808261,1775665506.078935,599616441760776004,-510
2.815954,1775665506.078935,599616441760776004,2047
2.823646,1775665506.078935,599616441760776004,-2
2.831338,1775665506.078935,599616441760776004,-505
2.839031,1775665506.078935,599616441760776004,767
2.846723,1775665506.078935,599616441760776004,-2
2.854415,1775665506.078935,599616441760776004,-523
2.862108,1775665506.078935,599616441760776004,-1537
2.869800,1775665506.078935,599616441760776004,-3
2.877492,1775665506.078935,599616441760776004,-505
2.885184,1775665506.078935,599616441760776004,2047
2.892877,1775665506.078935,599616441760776004,-2
2.900569,1775665506.078935,599616441760776004,-508
2.908261,1775665506.078935,599616441760776004,-3841
2.915954,1775665506.078935,599616441760776004,-3
2.923646,1775665506.078935,599616441760776004,-544
2.931338,1775665506.078935,599616441760776004,-3329
2.939031,1775665506.078935,599616441760776004,-3
2.946723,1775665506.078935,599616441760776004,-508
2.954415,1775665506.078935,599616441760776004,767
2.962108,1775665506.078935,599616441760776004,-2
2.969800,1775665506.078935,599616441760776004,-503
2.977492,1775665506.078935,599616441760776004,-1537
2.985184,1775665506.078935,599616441760776004,-3
2.992877,1775665506.078935,599616441760776004,-537
3.000569,1775665506.078935,599616441760776004,-257
3.008261,1775665506.078935,599616441760776004,-3
3.015954,1775665506.078935,599616441760776004,-494
3.023646,1775665506.078935,599616441760776004,5375
3.031338,1775665506.078935,599616441760776004,-2
3.039031,1775665506.078935,599616441760776004,-481
3.046723,1775665506.078935,599616441760776004,12287
3.054415,1775665506.078935,599616441760776004,-2
3.062107,1775665506.078935,599616441760776004,-447
3.069800,1775665506.078935,599616441760776004,19967
3.077492,1775665506.078935,599616441760776004,-2
3.085184,1775665506.078935,599616441760776004,-444
3.092877,1775665506.078935,599616441760776004,13567
3.100569,1775665506.078935,599616441760776004,-2
3.108261,1775665506.078935,599616441760776004,-469
3.115954,1775665506.078935,599616441760776004,11263
3.123646,1775665506.078935,599616441760776004,-2
3.131338,1775665506.078935,599616441760776004,-469
3.139031,1775665506.078935,599616441760776004,10751
3.146723,1775665506.078935,599616441760776004,-2
3.154415,1775665506.078935,599616441760776004,-483
3.162107,1775665506.078935,599616441760776004,5375
3.169800,1775665506.078935,599616441760776004,-2
3.177492,1775665506.078935,599616441760776004,-492
3.185184,1775665506.078935,599616441760776004,4863
3.192877,1775665506.078935,599616441760776004,-2
3.200569,1775665506.078935,599616441760776004,-494
3.208261,1775665506.078935,599616441760776004,5887
3.215954,1775665506.078935,599616441760776004,-2
3.223646,1775665506.078935,599616441760776004,-492
3.231338,1775665506.078935,599616441760776004,5375
3.239031,1775665506.078935,599616441760776004,-2
3.246723,1775665506.078935,599616441760776004,-494
3.254415,1775665506.078935,599616441760776004,1279
3.262107,1775665506.078935,599616441760776004,-2
3.269800,1775665506.078935,599616441760776004,-499
3.277492,1775665506.078935,599616441760776004,11263
3.285184,1775665506.078935,599616441760776004,-2
3.292877,1775665506.078935,599616441760776004,-465
3.300569,1775665506.078935,599616441760776004,13567
3.308261,1775665506.078935,599616441760776004,-2
3.315954,1775665506.078935,599616441760776004,-359
3.323646,1775665506.078935,599616441760776004,-18177
3.331338,1775665506.078935,599616441760776004,-1
3.339031,1775665506.078935,599616441760776004,221
3.346723,1775665506.078935,599616441760776004,10752
3.354415,1775665506.078935,599616441760776004,0
3.362108,1775665506.078935,599616441760776004,-611
3.369800,1775665506.078935,599616441760776004,19711
3.377492,1775665506.078935,599616441760776004,-4
3.385184,1775665506.078935,599616441760776004,-650
3.392877,1775665506.078935,599616441760776004,30207
3.400569,1775665506.078935,599616441760776004,-2
3.408261,1775665506.078935,599616441760776004,-467
3.415954,1775665506.078935,599616441760776004,7679
3.423646,1775665506.078935,599616441760776004,-2
3.431338,1775665506.078935,599616441760776004,-415
3.439031,1775665506.078935,599616441760776004,20991
3.446723,1775665506.078935,599616441760776004,-2
3.454415,1775665506.078935,599616441760776004,-453
3.462108,1775665506.078935,599616441760776004,19967
3.469800,1775665506.078935,599616441760776004,-2
3.477492,1775665506.078935,599616441760776004,-429
3.485184,1775665506.078935,599616441760776004,21503
3.492877,1775665506.078935,599616441760776004,-2
3.500569,1775665506.078935,599616441760776004,-420
3.508261,1775665506.078935,599616441760776004,23295
3.515954,1775665506.078935,599616441760776004,-2
3.523646,1775665506.078935,599616441760776004,-444
3.531338,1775665506.078935,599616441760776004,16383
3.539031,1775665506.078935,599616441760776004,-2
3.546723,1775665506.078935,599616441760776004,-424
3.554415,1775665506.078935,599616441760776004,26879
3.562107,1775665506.078935,599616441760776004,-2
3.569800,1775665506.078935,599616441760776004,-401
3.577492,1775665506.078935,599616441760776004,30975
3.585184,1775665506.078935,599616441760776004,-2
3.592877,1775665506.078935,599616441760776004,-388
3.600569,1775665506.078935,599616441760776004,-32257
3.608261,1775665506.078935,599616441760776004,-2
3.615954,1775665506.078935,599616441760776004,-368
3.623646,1775665506.078935,599616441760776004,-22529
3.631338,1775665506.078935,599616441760776004,-2
3.639031,1775665506.078935,599616441760776004,-322
3.369920,1775665506.664803,599616442322434364,-311
3.377612,1775665506.664803,599616442322434364,-9217
3.385304,1775665506.664803,599616442322434364,-2
3.392997,1775665506.664803,599616442322434364,-270
3.400689,1775665506.664803,599616442322434364,-1
3.408381,1775665506.664803,599616442322434364,-2
3.416073,1775665506.664803,599616442322434364,-243
3.423766,1775665506.664803,599616442322434364,6399
3.431458,1775665506.664803,599616442322434364,-1
3.439150,1775665506.664803,599616442322434364,-250
3.446843,1775665506.664803,599616442322434364,-6913
3.454535,1775665506.664803,599616442322434364,-2
3.462227,1775665506.664803,599616442322434364,-298
3.469920,1775665506.664803,599616442322434364,-15105
3.477612,1775665506.664803,599616442322434364,-2
3.485304,1775665506.664803,599616442322434364,-356
3.492997,1775665506.664803,599616442322434364,29695
3.500689,1775665506.664803,599616442322434364,-2
3.508381,1775665506.664803,599616442322434364,-447
3.516073,1775665506.664803,599616442322434364,4351
3.523766,1775665506.664803,599616442322434364,-2
3.531458,1775665506.664803,599616442322434364,-508
3.539150,1775665506.664803,599616442322434364,-257
3.546843,1775665506.664803,599616442322434364,-3
3.554535,1775665506.664803,599616442322434364,-532
3.562227,1775665506.664803,599616442322434364,-4353
3.569920,1775665506.664803,599616442322434364,-3
3.577612,1775665506.664803,599616442322434364,-523
3.585304,1775665506.664803,599616442322434364,-1537
3.592996,1775665506.664803,599616442322434364,-3
3.600689,1775665506.664803,599616442322434364,-501
3.608381,1775665506.664803,599616442322434364,7679
3.616073,1775665506.664803,599616442322434364,-2
3.623766,1775665506.664803,599616442322434364,-476
3.631458,1775665506.664803,599616442322434364,11263
3.639150,1775665506.664803,599616442322434364,-2
3.646843,1775665506.664803,599616442322434364,-467
3.654535,1775665506.664803,599616442322434364,12287
3.662227,1775665506.664803,599616442322434364,-2
3.669920,1775665506.664803,599616442322434364,-460
3.677612,1775665506.664803,599616442322434364,12287
3.685304,1775665506.664803,599616442322434364,-2
3.692997,1775665506.664803,599616442322434364,-458
3.700689,1775665506.664803,599616442322434364,18175
3.708381,1775665506.664803,599616442322434364,-2
3.716074,1775665506.664803,599616442322434364,-440
3.723766,1775665506.664803,599616442322434364,19199
3.731458,1775665506.664803,599616442322434364,-2
3.739150,1775665506.664803,599616442322434364,-422
3.746843,1775665506.664803,599616442322434364,26111
3.754535,1775665506.664803,599616442322434364,-2
3.762227,1775665506.664803,599616442322434364,-404
3.769920,1775665506.664803,599616442322434364,25599
3.777612,1775665506.664803,599616442322434364,-2
3.785304,1775665506.664803,599616442322434364,-431
3.792997,1775665506.664803,599616442322434364,22783
3.800689,1775665506.664803,599616442322434364,-2
3.808381,1775665506.664803,599616442322434364,-401
3.816073,1775665506.664803,599616442322434364,28671
3.823766,1775665506.664803,599616442322434364,-2
3.831458,1775665506.664803,599616442322434364,-395
3.839150,1775665506.664803,599616442322434364,-31745
3.846843,1775665506.664803,599616442322434364,-2
3.854535,1775665506.664803,599616442322434364,-381
3.862227,1775665506.664803,599616442322434364,-31745
3.869920,1775665506.664803,599616442322434364,-2
3.877612,1775665506.664803,599616442322434364,-370
3.885304,1775665506.664803,599616442322434364,-26113
3.892997,1775665506.664803,599616442322434364,-2
3.900689,1775665506.664803,599616442322434364,-356
3.908381,1775665506.664803,599616442322434364,-25345
3.916073,1775665506.664803,599616442322434364,-2
3.923766,1775665506.664803,599616442322434364,-356
3.931458,1775665506.664803,599616442322434364,-24321
3.939150,1775665506.664803,599616442322434364,-2
3.946843,1775665506.664803,599616442322434364,-345
3.954535,1775665506.664803,599616442322434364,-22017
3.962227,1775665506.664803,599616442322434364,-2
3.969920,1775665506.664803,599616442322434364,-343
3.977612,1775665506.664803,599616442322434364,-25345
3.985304,1775665506.664803,599616442322434364,-2
3.992997,1775665506.664803,599616442322434364,-370
4.000689,1775665506.664803,599616442322434364,-24833
4.008381,1775665506.664803,599616442322434364,-2
4.016073,1775665506.664803,599616442322434364,-338
4.023766,1775665506.664803,599616442322434364,-22017
4.031458,1775665506.664803,599616442322434364,-2
4.039150,1775665506.664803,599616442322434364,-338
4.046843,1775665506.664803,599616442322434364,-19713
4.054535,1775665506.664803,599616442322434364,-2
4.062227,1775665506.664803,599616442322434364,-338
4.069920,1775665506.664803,599616442322434364,-18945
4.077612,1775665506.664803,599616442322434364,-2
4.085304,1775665506.664803,599616442322434364,-322
4.092996,1775665506.664803,599616442322434364,-17409
4.100689,1775665506.664803,599616442322434364,-2
4.108381,1775665506.664803,599616442322434364,-322
4.116073,1775665506.664803,599616442322434364,-16129
4.123766,1775665506.664803,599616442322434364,-2
4.131458,1775665506.664803,599616442322434364,-320
4.139150,1775665506.664803,599616442322434364,-14337
4.146843,1775665506.664803,599616442322434364,-2
4.154535,1775665506.664803,599616442322434364,-309
4.162227,1775665506.664803,599616442322434364,-13313
4.169920,1775665506.664803,599616442322434364,-2
4.177612,1775665506.664803,599616442322434364,-313
4.185304,1775665506.664803,599616442322434364,-15617
4.192997,1775665506.664803,599616442322434364,-2
4.200689,1775665506.664803,599616442322434364,-309
3.931568,1775665507.206885,599616442884082550,-289
3.939260,1775665507.206885,599616442884082550,-5121
3.946952,1775665507.206885,599616442884082550,-2
3.954645,1775665507.206885,599616442884082550,-261
3.962337,1775665507.206885,599616442884082550,-1
3.970029,1775665507.206885,599616442884082550,-2
3.977722,1775665507.206885,599616442884082550,-289
3.985414,1775665507.206885,599616442884082550,-15617
3.993106,1775665507.206885,599616442884082550,-2
4.000799,1775665507.206885,599616442884082550,-313
4.008491,1775665507.206885,599616442884082550,-15105
4.016183,1775665507.206885,599616442884082550,-2
4.023876,1775665507.206885,599616442884082550,-341
4.031568,1775665507.206885,599616442884082550,-29953
4.039260,1775665507.206885,599616442884082550,-2
4.046952,1775665507.206885,599616442884082550,-388
4.054645,1775665507.206885,599616442884082550,-31233
4.062337,1775665507.206885,599616442884082550,-2
4.070029,1775665507.206885,599616442884082550,-365
4.077722,1775665507.206885,599616442884082550,-26625
4.085414,1775665507.206885,599616442884082550,-2
4.093106,1775665507.206885,599616442884082550,-356
4.100799,1775665507.206885,599616442884082550,-22529
4.108491,1775665507.206885,599616442884082550,-2
4.116183,1775665507.206885,599616442884082550,-343
4.123875,1775665507.206885,599616442884082550,-22017
4.131568,1775665507.206885,599616442884082550,-2
4.139260,1775665507.206885,599616442884082550,-338
4.146953,1775665507.206885,599616442884082550,-18433
4.154645,1775665507.206885,599616442884082550,-2
4.162337,1775665507.206885,599616442884082550,-322
4.170029,1775665507.206885,599616442884082550,-16129
4.177722,1775665507.206885,599616442884082550,-2
4.185414,1775665507.206885,599616442884082550,-325
4.193106,1775665507.206885,599616442884082550,-13825
4.200799,1775665507.206885,599616442884082550,-2
4.208491,1775665507.206885,599616442884082550,-221
4.216183,1775665507.206885,599616442884082550,9471
4.223876,1775665507.206885,599616442884082550,0
4.231568,1775665507.206885,599616442884082550,304
4.239260,1775665507.206885,599616442884082550,28160
4.246952,1775665507.206885,599616442884082550,0
4.254645,1775665507.206885,599616442884082550,-541
4.262337,1775665507.206885,599616442884082550,-20481
4.270029,1775665507.206885,599616442884082550,-4
4.277722,1775665507.206885,599616442884082550,-521
4.285414,1775665507.206885,599616442884082550,1791
4.293106,1775665507.206885,599616442884082550,-1
4.300799,1775665507.206885,599616442884082550,-313
4.308491,1775665507.206885,599616442884082550,-20225
4.316183,1775665507.206885,599616442884082550,-2
4.323876,1775665507.206885,599616442884082550,-273
4.331568,1775665507.206885,599616442884082550,-6401
4.339260,1775665507.206885,599616442884082550,-2
4.346952,1775665507.206885,599616442884082550,-295
4.354645,1775665507.206885,599616442884082550,-4097
4.362337,1775665507.206885,599616442884082550,-2
4.370029,1775665507.206885,599616442884082550,-270
4.377722,1775665507.206885,599616442884082550,-5121
4.385414,1775665507.206885,599616442884082550,-2
4.393106,1775665507.206885,599616442884082550,-266
4.400799,1775665507.206885,599616442884082550,-1
4.408491,1775665507.206885,599616442884082550,-2
4.416183,1775665507.206885,599616442884082550,-252
4.423876,1775665507.206885,599616442884082550,1279
4.431568,1775665507.206885,599616442884082550,-1
4.439260,1775665507.206885,599616442884082550,-257
4.446952,1775665507.206885,599616442884082550,511
4.454645,1775665507.206885,599616442884082550,-1
4.462337,1775665507.206885,599616442884082550,-241
4.470029,1775665507.206885,599616442884082550,5887
4.477722,1775665507.206885,599616442884082550,-1
4.485414,1775665507.206885,599616442884082550,-230
4.493106,1775665507.206885,599616442884082550,8703
4.500799,1775665507.206885,599616442884082550,-1
4.508491,1775665507.206885,599616442884082550,-228
4.516183,1775665507.206885,599616442884082550,6911
4.523876,1775665507.206885,599616442884082550,-1
4.531568,1775665507.206885,599616442884082550,-205
4.539260,1775665507.206885,599616442884082550,21503
4.546952,1775665507.206885,599616442884082550,-1
4.554645,1775665507.206885,599616442884082550,-155
4.562337,1775665507.206885,599616442884082550,29951
4.570029,1775665507.206885,599616442884082550,-1
4.577722,1775665507.206885,599616442884082550,-124
4.585414,1775665507.206885,599616442884082550,-28417
4.593106,1775665507.206885,599616442884082550,-1
4.600799,1775665507.206885,599616442884082550,-108
4.608491,1775665507.206885,599616442884082550,-27905
4.616183,1775665507.206885,599616442884082550,-1
4.623875,1775665507.206885,599616442884082550,-117
4.631568,1775665507.206885,599616442884082550,31231
4.639260,1775665507.206885,599616442884082550,-1
4.646953,1775665507.206885,599616442884082550,-176
4.654645,1775665507.206885,599616442884082550,8703
4.662337,1775665507.206885,599616442884082550,-1
4.670029,1775665507.206885,599616442884082550,-261
4.677722,1775665507.206885,599616442884082550,-10497
4.685414,1775665507.206885,599616442884082550,-2
4.693106,1775665507.206885,599616442884082550,-329
4.700799,1775665507.206885,599616442884082550,-24833
4.708491,1775665507.206885,599616442884082550,-2
4.716183,1775665507.206885,599616442884082550,-377
4.723876,1775665507.206885,599616442884082550,-32257
4.731568,1775665507.206885,599616442884082550,-2
4.739260,1775665507.206885,599616442884082550,-374
4.746952,1775665507.206885,599616442884082550,-29953
4.754645,1775665507.206885,599616442884082550,-2
4.762337,1775665507.206885,599616442884082550,-379
4.493221,1775665507.789839,599616443445735822,-386
4.500913,1775665507.789839,599616443445735822,31487
4.508606,1775665507.789839,599616443445735822,-2
4.516298,1775665507.789839,599616443445735822,-383
4.523990,1775665507.789839,599616443445735822,-28929
4.531683,1775665507.789839,599616443445735822,-2
4.539375,1775665507.789839,599616443445735822,-370
4.547067,1775665507.789839,599616443445735822,-28417
4.554760,1775665507.789839,599616443445735822,-2
4.562452,1775665507.789839,599616443445735822,-379
4.570144,1775665507.789839,599616443445735822,27391
4.577837,1775665507.789839,599616443445735822,-2
4.585529,1775665507.789839,599616443445735822,-404
4.593221,1775665507.789839,599616443445735822,-32257
4.600913,1775665507.789839,599616443445735822,-2
4.608606,1775665507.789839,599616443445735822,-383
4.616298,1775665507.789839,599616443445735822,-31745
4.623990,1775665507.789839,599616443445735822,-2
4.631683,1775665507.789839,599616443445735822,-377
4.639375,1775665507.789839,599616443445735822,-30721
4.647067,1775665507.789839,599616443445735822,-2
4.654760,1775665507.789839,599616443445735822,-361
4.662452,1775665507.789839,599616443445735822,-22529
4.670144,1775665507.789839,599616443445735822,-2
4.677837,1775665507.789839,599616443445735822,-347
4.685529,1775665507.789839,599616443445735822,-22529
4.693221,1775665507.789839,599616443445735822,-2
4.700913,1775665507.789839,599616443445735822,-338
4.708606,1775665507.789839,599616443445735822,-20225
4.716298,1775665507.789839,599616443445735822,-2
4.723990,1775665507.789839,599616443445735822,-329
4.731683,1775665507.789839,599616443445735822,-16641
4.739375,1775665507.789839,599616443445735822,-2
4.747067,1775665507.789839,599616443445735822,-322
4.754760,1775665507.789839,599616443445735822,-16129
4.762452,1775665507.789839,599616443445735822,-2
4.770144,1775665507.789839,599616443445735822,-331
4.777836,1775665507.789839,599616443445735822,-21505
4.785529,1775665507.789839,599616443445735822,-2
4.793221,1775665507.789839,599616443445735822,-325
4.800913,1775665507.789839,599616443445735822,-13825
4.808606,1775665507.789839,599616443445735822,-2
4.816298,1775665507.789839,599616443445735822,-313
4.823990,1775665507.789839,599616443445735822,-13313
4.831683,1775665507.789839,599616443445735822,-2
4.839375,1775665507.789839,599616443445735822,-304
4.847067,1775665507.789839,599616443445735822,-11009
4.854760,1775665507.789839,599616443445735822,-2
4.862452,1775665507.789839,599616443445735822,-291
4.870144,1775665507.789839,599616443445735822,-6401
4.877836,1775665507.789839,599616443445735822,-2
4.885529,1775665507.789839,599616443445735822,-280
4.893221,1775665507.789839,599616443445735822,-5889
4.900913,1775665507.789839,599616443445735822,-2
4.908606,1775665507.789839,599616443445735822,-280
4.916298,1775665507.789839,599616443445735822,-6401
4.923990,1775665507.789839,599616443445735822,-2
4.931683,1775665507.789839,599616443445735822,-277
4.939375,1775665507.789839,599616443445735822,-4097
4.947067,1775665507.789839,599616443445735822,-2
4.954760,1775665507.789839,599616443445735822,-268
4.962452,1775665507.789839,599616443445735822,-4609
4.970144,1775665507.789839,599616443445735822,-2
4.977836,1775665507.789839,599616443445735822,-282
4.985529,1775665507.789839,599616443445735822,-5121
4.993221,1775665507.789839,599616443445735822,-2
5.000913,1775665507.789839,599616443445735822,-270
5.008606,1775665507.789839,599616443445735822,-2817
5.016298,1775665507.789839,599616443445735822,-2
5.023990,1775665507.789839,599616443445735822,-268
5.031683,1775665507.789839,599616443445735822,-5889
5.039375,1775665507.789839,599616443445735822,-2
5.047067,1775665507.789839,599616443445735822,-300
5.054760,1775665507.789839,599616443445735822,-8193
5.062452,1775665507.789839,599616443445735822,-2
5.070144,1775665507.789839,599616443445735822,-259
5.077837,1775665507.789839,599616443445735822,1791
5.085529,1775665507.789839,599616443445735822,-1
5.093221,1775665507.789839,599616443445735822,-230
5.100913,1775665507.789839,599616443445735822,15103
5.108606,1775665507.789839,599616443445735822,-1
5.116298,1775665507.789839,599616443445735822,-205
5.123990,1775665507.789839,599616443445735822,5887
5.131683,1775665507.789839,599616443445735822,-1
5.139375,1775665507.789839,599616443445735822,-246
5.147067,1775665507.789839,599616443445735822,5119
5.154760,1775665507.789839,599616443445735822,-1
5.162452,1775665507.789839,599616443445735822,-239
5.170144,1775665507.789839,599616443445735822,-513
5.177837,1775665507.789839,599616443445735822,-2
5.185529,1775665507.789839,599616443445735822,-277
5.193221,1775665507.789839,599616443445735822,-6401
5.200913,1775665507.789839,599616443445735822,-2
5.208606,1775665507.789839,599616443445735822,-280
5.216298,1775665507.789839,599616443445735822,-4609
5.223990,1775665507.789839,599616443445735822,-2
5.231683,1775665507.789839,599616443445735822,-275
5.239375,1775665507.789839,599616443445735822,-3329
5.247067,1775665507.789839,599616443445735822,-2
5.254760,1775665507.789839,599616443445735822,-277
5.262452,1775665507.789839,599616443445735822,-9217
5.270144,1775665507.789839,599616443445735822,-2
5.277836,1775665507.789839,599616443445735822,-289
5.285529,1775665507.789839,599616443445735822,-4097
5.293221,1775665507.789839,599616443445735822,-2
5.300913,1775665507.789839,599616443445735822,-270
5.308606,1775665507.789839,599616443445735822,-5889
5.316298,1775665507.789839,599616443445735822,-2
5.323990,1775665507.789839,599616443445735822,-286
5.054895,1775665508.329002,599616444007409438,-282
5.062587,1775665508.329002,599616444007409438,8191
5.070279,1775665508.329002,599616444007409438,-1
5.077972,1775665508.329002,599616444007409438,-15
5.085664,1775665508.329002,599616444007409438,12543
5.093356,1775665508.329002,599616444007409438,1
5.101049,1775665508.329002,599616444007409438,277
5.108741,1775665508.329002,599616444007409438,-17664
5.116433,1775665508.329002,599616444007409438,-2
5.124125,1775665508.329002,599616444007409438,-819
5.131818,1775665508.329002,599616444007409438,23551
5.139510,1775665508.329002,599616444007409438,-3
5.147202,1775665508.329002,599616444007409438,-352
5.154895,1775665508.329002,599616444007409438,-4097
5.162587,1775665508.329002,599616444007409438,-2
5.170279,1775665508.329002,599616444007409438,-286
5.177972,1775665508.329002,599616444007409438,-1025
5.185664,1775665508.329002,599616444007409438,-2
5.193356,1775665508.329002,599616444007409438,-248
5.201049,1775665508.329002,599616444007409438,2303
5.208741,1775665508.329002,599616444007409438,-1
5.216433,1775665508.329002,599616444007409438,-232
5.224126,1775665508.329002,599616444007409438,8703
5.231818,1775665508.329002,599616444007409438,-1
5.239510,1775665508.329002,599616444007409438,-223
5.247202,1775665508.329002,599616444007409438,8191
5.254895,1775665508.329002,599616444007409438,-1
5.262587,1775665508.329002,599616444007409438,-225
5.270279,1775665508.329002,599616444007409438,10495
5.277972,1775665508.329002,599616444007409438,-1
5.285664,1775665508.329002,599616444007409438,-205
5.293356,1775665508.329002,599616444007409438,11519
5.301049,1775665508.329002,599616444007409438,-1
5.308741,1775665508.329002,599616444007409438,-223
5.316433,1775665508.329002,599616444007409438,11007
5.324126,1775665508.329002,599616444007409438,-1
5.331818,1775665508.329002,599616444007409438,-198
5.339510,1775665508.329002,599616444007409438,17407
5.347202,1775665508.329002,599616444007409438,-1
5.354895,1775665508.329002,599616444007409438,-176
5.362587,1775665508.329002,599616444007409438,23807
5.370279,1775665508.329002,599616444007409438,-1
5.377972,1775665508.329002,599616444007409438,-151
5.385664,1775665508.329002,599616444007409438,32511
5.393356,1775665508.329002,599616444007409438,-1
5.401049,1775665508.329002,599616444007409438,-110
5.408741,1775665508.329002,599616444007409438,-23297
5.416433,1775665508.329002,599616444007409438,-1
5.424126,1775665508.329002,599616444007409438,-79
5.431818,1775665508.329002,599616444007409438,-16897
5.439510,1775665508.329002,599616444007409438,-1
5.447202,1775665508.329002,599616444007409438,-51
5.454895,1775665508.329002,599616444007409438,-9473
5.462587,1775665508.329002,599616444007409438,-1
5.470279,1775665508.329002,599616444007409438,-42
5.477972,1775665508.329002,599616444007409438,-14081
5.485664,1775665508.329002,599616444007409438,-1
5.493356,1775665508.329002,599616444007409438,-74
5.501049,1775665508.329002,599616444007409438,-26113
5.508741,1775665508.329002,599616444007409438,-1
5.516433,1775665508.329002,599616444007409438,-146
5.524126,1775665508.329002,599616444007409438,16895
5.531818,1775665508.329002,599616444007409438,-1
5.539510,1775665508.329002,599616444007409438,-230
5.547202,1775665508.329002,599616444007409438,-513
5.554895,1775665508.329002,599616444007409438,-2
5.562587,1775665508.329002,599616444007409438,-289
5.570279,1775665508.329002,599616444007409438,-16641
5.577972,1775665508.329002,599616444007409438,-2
5.585664,1775665508.329002,599616444007409438,-336
5.593356,1775665508.329002,599616444007409438,-17409
5.601049,1775665508.329002,599616444007409438,-2
5.608741,1775665508.329002,599616444007409438,-318
5.616433,1775665508.329002,599616444007409438,-15617
5.624125,1775665508.329002,599616444007409438,-2
5.631818,1775665508.329002,599616444007409438,-311
5.639510,1775665508.329002,599616444007409438,-11521
5.647202,1775665508.329002,599616444007409438,-2
5.654895,1775665508.329002,599616444007409438,-293
5.662587,1775665508.329002,599616444007409438,-6913
5.670279,1775665508.329002,599616444007409438,-2
5.677972,1775665508.329002,599616444007409438,-277
5.685664,1775665508.329002,599616444007409438,-5121
5.693356,1775665508.329002,599616444007409438,-2
5.701049,1775665508.329002,599616444007409438,-277
5.708741,1775665508.329002,599616444007409438,-5889
5.716433,1775665508.329002,599616444007409438,-2
5.724126,1775665508.329002,599616444007409438,-277
5.731818,1775665508.329002,599616444007409438,-6913
5.739510,1775665508.329002,599616444007409438,-2
5.747202,1775665508.329002,599616444007409438,-293
5.754895,1775665508.329002,599616444007409438,-6401
5.762587,1775665508.329002,599616444007409438,-2
5.770279,1775665508.329002,599616444007409438,-280
5.777972,1775665508.329002,599616444007409438,-8705
5.785664,1775665508.329002,599616444007409438,-2
5.793356,1775665508.329002,599616444007409438,-300
5.801049,1775665508.329002,599616444007409438,-10497
5.808741,1775665508.329002,599616444007409438,-2
5.816433,1775665508.329002,599616444007409438,-291
5.824126,1775665508.329002,599616444007409438,-6401
5.831818,1775665508.329002,599616444007409438,-2
5.839510,1775665508.329002,599616444007409438,-295
5.847202,1775665508.329002,599616444007409438,-13313
5.854895,1775665508.329002,599616444007409438,-2
5.862587,1775665508.329002,599616444007409438,-295
5.870279,1775665508.329002,599616444007409438,-6401
5.877972,1775665508.329002,599616444007409438,-2
5.885664,1775665508.329002,599616444007409438,-280
5.616528,1775665508.869950,599616444569042366,-275
5.624220,1775665508.869950,599616444569042366,-4097
5.631912,1775665508.869950,599616444569042366,-2
5.639605,1775665508.869950,599616444569042366,-270
5.647297,1775665508.869950,599616444569042366,-1025
5.654989,1775665508.869950,599616444569042366,-2
5.662681,1775665508.869950,599616444569042366,-257
5.670374,1775665508.869950,599616444569042366,511
5.678066,1775665508.869950,599616444569042366,-1
5.685758,1775665508.869950,599616444569042366,-252
5.693451,1775665508.869950,599616444569042366,-513
5.701143,1775665508.869950,599616444569042366,-2
5.708835,1775665508.869950,599616444569042366,-268
5.716528,1775665508.869950,599616444569042366,-1
5.724220,1775665508.869950,599616444569042366,-2
5.731912,1775665508.869950,599616444569042366,-248
5.739605,1775665508.869950,599616444569042366,1279
5.747297,1775665508.869950,599616444569042366,-1
5.754989,1775665508.869950,599616444569042366,-252
5.762681,1775665508.869950,599616444569042366,-1
5.770374,1775665508.869950,599616444569042366,-2
5.778066,1775665508.869950,599616444569042366,-261
5.785758,1775665508.869950,599616444569042366,2303
5.793451,1775665508.869950,599616444569042366,-1
5.801143,1775665508.869950,599616444569042366,-239
5.808835,1775665508.869950,599616444569042366,4607
5.816528,1775665508.869950,599616444569042366,-1
5.824220,1775665508.869950,599616444569042366,-230
5.831912,1775665508.869950,599616444569042366,8191
5.839604,1775665508.869950,599616444569042366,-1
5.847297,1775665508.869950,599616444569042366,-223
5.854989,1775665508.869950,599616444569042366,11007
5.862682,1775665508.869950,599616444569042366,-1
5.870374,1775665508.869950,599616444569042366,-212
5.878066,1775665508.869950,599616444569042366,9727
5.885758,1775665508.869950,599616444569042366,-1
5.893451,1775665508.869950,599616444569042366,-219
5.901143,1775665508.869950,599616444569042366,9727
5.908835,1775665508.869950,599616444569042366,-1
5.916528,1775665508.869950,599616444569042366,-219
5.924220,1775665508.869950,599616444569042366,10495
5.931912,1775665508.869950,599616444569042366,-1
5.939605,1775665508.869950,599616444569042366,-205
5.947297,1775665508.869950,599616444569042366,17919
5.954989,1775665508.869950,599616444569042366,-1
5.962682,1775665508.869950,599616444569042366,-178
5.970374,1775665508.869950,599616444569042366,24831
5.978066,1775665508.869950,599616444569042366,-1
5.985758,1775665508.869950,599616444569042366,-130
5.993451,1775665508.869950,599616444569042366,32511
6.001143,1775665508.869950,599616444569042366,-1
6.008835,1775665508.869950,599616444569042366,-162
6.016528,1775665508.869950,599616444569042366,18431
6.024220,1775665508.869950,599616444569042366,-1
6.031912,1775665508.869950,599616444569042366,-196
6.039605,1775665508.869950,599616444569042366,11519
6.047297,1775665508.869950,599616444569042366,-1
6.054989,1775665508.869950,599616444569042366,-219
6.062681,1775665508.869950,599616444569042366,8703
6.070374,1775665508.869950,599616444569042366,-1
6.078066,1775665508.869950,599616444569042366,-237
6.085758,1775665508.869950,599616444569042366,5119
6.093451,1775665508.869950,599616444569042366,-1
6.101143,1775665508.869950,599616444569042366,-230
6.108835,1775665508.869950,599616444569042366,7423
6.116528,1775665508.869950,599616444569042366,-1
6.124220,1775665508.869950,599616444569042366,-228
6.131912,1775665508.869950,599616444569042366,10495
6.139605,1775665508.869950,599616444569042366,-1
6.147297,1775665508.869950,599616444569042366,-212
6.154989,1775665508.869950,599616444569042366,11007
6.162681,1775665508.869950,599616444569042366,-1
6.170374,1775665508.869950,599616444569042366,-212
6.178066,1775665508.869950,599616444569042366,13311
6.185758,1775665508.869950,599616444569042366,-1
6.193451,1775665508.869950,599616444569042366,-196
6.201143,1775665508.869950,599616444569042366,15103
6.208835,1775665508.869950,599616444569042366,-1
6.216528,1775665508.869950,599616444569042366,-212
6.224220,1775665508.869950,599616444569042366,21503
6.231912,1775665508.869950,599616444569042366,-1
6.239605,1775665508.869950,599616444569042366,49
6.247297,1775665508.869950,599616444569042366,-28928
6.254989,1775665508.869950,599616444569042366,1
6.262681,1775665508.869950,599616444569042366,413
6.270374,1775665508.869950,599616444569042366,21248
6.278066,1775665508.869950,599616444569042366,-1
6.285758,1775665508.869950,599616444569042366,-720
6.293451,1775665508.869950,599616444569042366,-20481
6.301143,1775665508.869950,599616444569042366,-3
6.308835,1775665508.869950,599616444569042366,-250
6.316528,1775665508.869950,599616444569042366,10495
6.324220,1775665508.869950,599616444569042366,-1
6.331912,1775665508.869950,599616444569042366,-264
6.339604,1775665508.869950,599616444569042366,11519
6.347297,1775665508.869950,599616444569042366,-1
6.354989,1775665508.869950,599616444569042366,-203
6.362682,1775665508.869950,599616444569042366,7423
6.370374,1775665508.869950,599616444569042366,-1
6.378066,1775665508.869950,599616444569042366,-207
6.385758,1775665508.869950,599616444569042366,17407
6.393451,1775665508.869950,599616444569042366,-1
6.401143,1775665508.869950,599616444569042366,-189
6.408835,1775665508.869950,599616444569042366,19199
6.416528,1775665508.869950,599616444569042366,-1
6.424220,1775665508.869950,599616444569042366,-178
6.431912,1775665508.869950,599616444569042366,19199
6.439605,1775665508.869950,599616444569042366,-1
6.447297,1775665508.869950,599616444569042366,-178
6.178211,1775665509.454933,599616445130726154,-167
6.185904,1775665509.454933,599616445130726154,24831
6.193596,1775665509.454933,599616445130726154,-1
6.201288,1775665509.454933,599616445130726154,-153
6.208981,1775665509.454933,599616445130726154,27135
6.216673,1775665509.454933,599616445130726154,-1
6.224365,1775665509.454933,599616445130726154,-162
6.232058,1775665509.454933,599616445130726154,23039
6.239750,1775665509.454933,599616445130726154,-1
6.247442,1775665509.454933,599616445130726154,-146
6.255134,1775665509.454933,599616445130726154,-30209
6.262827,1775665509.454933,599616445130726154,-1
6.270519,1775665509.454933,599616445130726154,-106
6.278211,1775665509.454933,599616445130726154,-23809
6.285904,1775665509.454933,599616445130726154,-1
6.293596,1775665509.454933,599616445130726154,-85
6.301288,1775665509.454933,599616445130726154,-18689
6.308981,1775665509.454933,599616445130726154,-1
6.316673,1775665509.454933,599616445130726154,-49
6.324365,1775665509.454933,599616445130726154,-5889
6.332058,1775665509.454933,599616445130726154,-1
6.339750,1775665509.454933,599616445130726154,-20
6.347442,1775665509.454933,599616445130726154,-7169
6.355134,1775665509.454933,599616445130726154,-1
6.362827,1775665509.454933,599616445130726154,-40
6.370519,1775665509.454933,599616445130726154,-13569
6.378211,1775665509.454933,599616445130726154,-1
6.385904,1775665509.454933,599616445130726154,-76
6.393596,1775665509.454933,599616445130726154,-29185
6.401288,1775665509.454933,599616445130726154,-1
6.408981,1775665509.454933,599616445130726154,-160
6.416673,1775665509.454933,599616445130726154,14591
6.424365,1775665509.454933,599616445130726154,-1
6.432057,1775665509.454933,599616445130726154,-234
6.439750,1775665509.454933,599616445130726154,-1
6.447442,1775665509.454933,599616445130726154,-2
6.455135,1775665509.454933,599616445130726154,-266
6.462827,1775665509.454933,599616445130726154,-4097
6.470519,1775665509.454933,599616445130726154,-2
6.478211,1775665509.454933,599616445130726154,-275
6.485904,1775665509.454933,599616445130726154,-5889
6.493596,1775665509.454933,599616445130726154,-2
6.501288,1775665509.454933,599616445130726154,-284
6.508981,1775665509.454933,599616445130726154,-5121
6.516673,1775665509.454933,599616445130726154,-2
6.524365,1775665509.454933,599616445130726154,-264
6.532058,1775665509.454933,599616445130726154,-513
6.539750,1775665509.454933,599616445130726154,-2
6.547442,1775665509.454933,599616445130726154,-259
6.555135,1775665509.454933,599616445130726154,-2817
6.562827,1775665509.454933,599616445130726154,-2
6.570519,1775665509.454933,599616445130726154,-280
6.578211,1775665509.454933,599616445130726154,-3329
6.585904,1775665509.454933,599616445130726154,-2
6.593596,1775665509.454933,599616445130726154,-255
6.601288,1775665509.454933,599616445130726154,511
6.608981,1775665509.454933,599616445130726154,-1
6.616673,1775665509.454933,599616445130726154,-257
6.624365,1775665509.454933,599616445130726154,1279
6.632058,1775665509.454933,599616445130726154,-1
6.639750,1775665509.454933,599616445130726154,-252
6.647442,1775665509.454933,599616445130726154,2303
6.655134,1775665509.454933,599616445130726154,-1
6.662827,1775665509.454933,599616445130726154,-239
6.670519,1775665509.454933,599616445130726154,1791
6.678211,1775665509.454933,599616445130726154,-1
6.685904,1775665509.454933,599616445130726154,-264
6.693596,1775665509.454933,599616445130726154,-2817
6.701288,1775665509.454933,599616445130726154,-2
6.708981,1775665509.454933,599616445130726154,-270
6.716673,1775665509.454933,599616445130726154,-2817
6.724365,1775665509.454933,599616445130726154,-2
6.732058,1775665509.454933,599616445130726154,-261
6.739750,1775665509.454933,599616445130726154,-1
6.747442,1775665509.454933,599616445130726154,-2
6.755134,1775665509.454933,599616445130726154,-257
6.762827,1775665509.454933,599616445130726154,-513
6.770519,1775665509.454933,599616445130726154,-2
6.778211,1775665509.454933,599616445130726154,-261
6.785904,1775665509.454933,599616445130726154,511
6.793596,1775665509.454933,599616445130726154,-1
6.801288,1775665509.454933,599616445130726154,-248
6.808981,1775665509.454933,599616445130726154,1791
6.816673,1775665509.454933,599616445130726154,-1
6.824365,1775665509.454933,599616445130726154,-255
6.832058,1775665509.454933,599616445130726154,-1025
6.839750,1775665509.454933,599616445130726154,-2
6.847442,1775665509.454933,599616445130726154,-261
6.855134,1775665509.454933,599616445130726154,1791
6.862827,1775665509.454933,599616445130726154,-1
6.870519,1775665509.454933,599616445130726154,-246
6.878211,1775665509.454933,599616445130726154,3583
6.885904,1775665509.454933,599616445130726154,-1
6.893596,1775665509.454933,599616445130726154,-237
6.901288,1775665509.454933,599616445130726154,5119
6.908981,1775665509.454933,599616445130726154,-1
6.916673,1775665509.454933,599616445130726154,-237
6.924365,1775665509.454933,599616445130726154,7423
6.932057,1775665509.454933,599616445130726154,-1
6.939750,1775665509.454933,599616445130726154,-221
6.947442,1775665509.454933,599616445130726154,10495
6.955135,1775665509.454933,599616445130726154,-1
6.962827,1775665509.454933,599616445130726154,-214
6.970519,1775665509.454933,599616445130726154,11007
6.978211,1775665509.454933,599616445130726154,-1
6.985904,1775665509.454933,599616445130726154,-212
6.993596,1775665509.454933,599616445130726154,12031
7.001288,1775665509.454933,599616445130726154,-1
7.008981,1775665509.454933,599616445130726154,-210
6.739839,1775665510.038775,599616445692353996,-205
6.747532,1775665510.038775,599616445692353996,14591
6.755224,1775665510.038775,599616445692353996,-1
6.762916,1775665510.038775,599616445692353996,-200
6.770609,1775665510.038775,599616445692353996,13311
6.778301,1775665510.038775,599616445692353996,-1
6.785993,1775665510.038775,599616445692353996,-205
6.793686,1775665510.038775,599616445692353996,12799
6.801378,1775665510.038775,599616445692353996,-1
6.809070,1775665510.038775,599616445692353996,-216
6.816762,1775665510.038775,599616445692353996,5119
6.824455,1775665510.038775,599616445692353996,-1
6.832147,1775665510.038775,599616445692353996,-255
6.839839,1775665510.038775,599616445692353996,3583
6.847532,1775665510.038775,599616445692353996,-1
6.855224,1775665510.038775,599616445692353996,-228
6.862916,1775665510.038775,599616445692353996,6911
6.870609,1775665510.038775,599616445692353996,-1
6.878301,1775665510.038775,599616445692353996,-228
6.885993,1775665510.038775,599616445692353996,12799
6.893686,1775665510.038775,599616445692353996,-1
6.901378,1775665510.038775,599616445692353996,-189
6.909070,1775665510.038775,599616445692353996,20223
6.916762,1775665510.038775,599616445692353996,-1
6.924455,1775665510.038775,599616445692353996,-146
6.932147,1775665510.038775,599616445692353996,-32513
6.939839,1775665510.038775,599616445692353996,-1
6.947532,1775665510.038775,599616445692353996,-153
6.955224,1775665510.038775,599616445692353996,18431
6.962916,1775665510.038775,599616445692353996,-1
6.970609,1775665510.038775,599616445692353996,-189
6.978301,1775665510.038775,599616445692353996,19711
6.985993,1775665510.038775,599616445692353996,-1
6.993685,1775665510.038775,599616445692353996,-189
7.001378,1775665510.038775,599616445692353996,13311
7.009070,1775665510.038775,599616445692353996,-1
7.016762,1775665510.038775,599616445692353996,-214
7.024455,1775665510.038775,599616445692353996,9727
7.032147,1775665510.038775,599616445692353996,-1
7.039839,1775665510.038775,599616445692353996,-219
7.047532,1775665510.038775,599616445692353996,8703
7.055224,1775665510.038775,599616445692353996,-1
7.062916,1775665510.038775,599616445692353996,-223
7.070609,1775665510.038775,599616445692353996,10495
7.078301,1775665510.038775,599616445692353996,-1
7.085993,1775665510.038775,599616445692353996,-221
7.093686,1775665510.038775,599616445692353996,5887
7.101378,1775665510.038775,599616445692353996,-1
7.109070,1775665510.038775,599616445692353996,-230
7.116763,1775665510.038775,599616445692353996,10495
7.124455,1775665510.038775,599616445692353996,-1
7.132147,1775665510.038775,599616445692353996,-210
7.139839,1775665510.038775,599616445692353996,13311
7.147532,1775665510.038775,599616445692353996,-1
7.155224,1775665510.038775,599616445692353996,-210
7.162916,1775665510.038775,599616445692353996,11007
7.170609,1775665510.038775,599616445692353996,-1
7.178301,1775665510.038775,599616445692353996,-101
7.185993,1775665510.038775,599616445692353996,-13313
7.193686,1775665510.038775,599616445692353996,0
7.201378,1775665510.038775,599616445692353996,431
7.209070,1775665510.038775,599616445692353996,-32256
7.216762,1775665510.038775,599616445692353996,0
7.224455,1775665510.038775,599616445692353996,-514
7.232147,1775665510.038775,599616445692353996,16127
7.239839,1775665510.038775,599616445692353996,-3
7.247532,1775665510.038775,599616445692353996,-352
7.255224,1775665510.038775,599616445692353996,27135
7.262916,1775665510.038775,599616445692353996,-1
7.270609,1775665510.038775,599616445692353996,-228
7.278301,1775665510.038775,599616445692353996,9215
7.285993,1775665510.038775,599616445692353996,-1
7.293686,1775665510.038775,599616445692353996,-171
7.301378,1775665510.038775,599616445692353996,15615
7.309070,1775665510.038775,599616445692353996,-1
7.316762,1775665510.038775,599616445692353996,-207
7.324455,1775665510.038775,599616445692353996,19199
7.332147,1775665510.038775,599616445692353996,-1
7.339839,1775665510.038775,599616445692353996,-180
7.347532,1775665510.038775,599616445692353996,17407
7.355224,1775665510.038775,599616445692353996,-1
7.362916,1775665510.038775,599616445692353996,-189
7.370609,1775665510.038775,599616445692353996,16895
7.378301,1775665510.038775,599616445692353996,-1
7.385993,1775665510.038775,599616445692353996,-194
7.393686,1775665510.038775,599616445692353996,17919
7.401378,1775665510.038775,599616445692353996,-1
7.409070,1775665510.038775,599616445692353996,-176
7.416762,1775665510.038775,599616445692353996,23039
7.424455,1775665510.038775,599616445692353996,-1
7.432147,1775665510.038775,599616445692353996,-162
7.439839,1775665510.038775,599616445692353996,26623
7.447532,1775665510.038775,599616445692353996,-1
7.455224,1775665510.038775,599616445692353996,-140
7.462916,1775665510.038775,599616445692353996,32511
7.470609,1775665510.038775,599616445692353996,-1
7.478301,1775665510.038775,599616445692353996,-124
7.485993,1775665510.038775,599616445692353996,-27393
7.493685,1775665510.038775,599616445692353996,-1
7.501378,1775665510.038775,599616445692353996,-92
7.509070,1775665510.038775,599616445692353996,-19201
7.516762,1775665510.038775,599616445692353996,-1
7.524455,1775665510.038775,599616445692353996,-56
7.532147,1775665510.038775,599616445692353996,-9473
7.539839,1775665510.038775,599616445692353996,-1
7.547532,1775665510.038775,599616445692353996,-24
7.555224,1775665510.038775,599616445692353996,-3585
7.562916,1775665510.038775,599616445692353996,-1
7.570609,1775665510.038775,599616445692353996,-18
7.301518,1775665510.579955,599616446254032700,-27
7.309210,1775665510.579955,599616446254032700,-9473
7.316903,1775665510.579955,599616446254032700,-1
7.324595,1775665510.579955,599616446254032700,-58
7.332287,1775665510.579955,599616446254032700,-23809
7.339979,1775665510.579955,599616446254032700,-1
7.347672,1775665510.579955,599616446254032700,-146
7.355364,1775665510.579955,599616446254032700,13823
7.363056,1775665510.579955,599616446254032700,-1
7.370749,1775665510.579955,599616446254032700,-239
7.378441,1775665510.579955,599616446254032700,-1793
7.386133,1775665510.579955,599616446254032700,-2
7.393826,1775665510.579955,599616446254032700,-284
7.401518,1775665510.579955,599616446254032700,-10497
7.409210,1775665510.579955,599616446254032700,-2
7.416903,1775665510.579955,599616446254032700,-316
7.424595,1775665510.579955,599616446254032700,-18433
7.432287,1775665510.579955,599616446254032700,-2
7.439979,1775665510.579955,599616446254032700,-313
7.447672,1775665510.579955,599616446254032700,-11521
7.455364,1775665510.579955,599616446254032700,-2
7.463056,1775665510.579955,599616446254032700,-302
7.470749,1775665510.579955,599616446254032700,-8705
7.478441,1775665510.579955,599616446254032700,-2
7.486133,1775665510.579955,599616446254032700,-284
7.493826,1775665510.579955,599616446254032700,-8705
7.501518,1775665510.579955,599616446254032700,-2
7.509210,1775665510.579955,599616446254032700,-286
7.516903,1775665510.579955,599616446254032700,-3329
7.524595,1775665510.579955,599616446254032700,-2
7.532287,1775665510.579955,599616446254032700,-268
7.539979,1775665510.579955,599616446254032700,-2817
7.547672,1775665510.579955,599616446254032700,-2
7.555364,1775665510.579955,599616446254032700,-264
7.563056,1775665510.579955,599616446254032700,-2305
7.570749,1775665510.579955,599616446254032700,-2
7.578441,1775665510.579955,599616446254032700,-266
7.586133,1775665510.579955,599616446254032700,-1793
7.593826,1775665510.579955,599616446254032700,-2
7.601518,1775665510.579955,599616446254032700,-266
7.609210,1775665510.579955,599616446254032700,-513
7.616902,1775665510.579955,599616446254032700,-2
7.624595,1775665510.579955,599616446254032700,-259
7.632287,1775665510.579955,599616446254032700,-5121
7.639979,1775665510.579955,599616446254032700,-2
7.647672,1775665510.579955,599616446254032700,-280
7.655364,1775665510.579955,599616446254032700,-1793
7.663056,1775665510.579955,599616446254032700,-2
7.670749,1775665510.579955,599616446254032700,-261
7.678441,1775665510.579955,599616446254032700,-3329
7.686133,1775665510.579955,599616446254032700,-2
7.693826,1775665510.579955,599616446254032700,-282
7.701518,1775665510.579955,599616446254032700,-4609
7.709210,1775665510.579955,599616446254032700,-2
7.716902,1775665510.579955,599616446254032700,-257
7.724595,1775665510.579955,599616446254032700,511
7.732287,1775665510.579955,599616446254032700,-1
7.739980,1775665510.579955,599616446254032700,-259
7.747672,1775665510.579955,599616446254032700,511
7.755364,1775665510.579955,599616446254032700,-1
7.763056,1775665510.579955,599616446254032700,-248
7.770749,1775665510.579955,599616446254032700,3583
7.778441,1775665510.579955,599616446254032700,-1
7.786133,1775665510.579955,599616446254032700,-237
7.793826,1775665510.579955,599616446254032700,5887
7.801518,1775665510.579955,599616446254032700,-1
7.809210,1775665510.579955,599616446254032700,-237
7.816903,1775665510.579955,599616446254032700,4095
7.824595,1775665510.579955,599616446254032700,-1
7.832287,1775665510.579955,599616446254032700,-234
7.839979,1775665510.579955,599616446254032700,9215
7.847672,1775665510.579955,599616446254032700,-1
7.855364,1775665510.579955,599616446254032700,-219
7.863056,1775665510.579955,599616446254032700,8703
7.870749,1775665510.579955,599616446254032700,-1
7.878441,1775665510.579955,599616446254032700,-221
7.886133,1775665510.579955,599616446254032700,6399
7.893826,1775665510.579955,599616446254032700,-1
7.901518,1775665510.579955,599616446254032700,-243
7.909210,1775665510.579955,599616446254032700,6911
7.916903,1775665510.579955,599616446254032700,-1
7.924595,1775665510.579955,599616446254032700,-216
7.932287,1775665510.579955,599616446254032700,10495
7.939979,1775665510.579955,599616446254032700,-1
7.947672,1775665510.579955,599616446254032700,-214
7.955364,1775665510.579955,599616446254032700,11519
7.963056,1775665510.579955,599616446254032700,-1
7.970749,1775665510.579955,599616446254032700,-212
7.978441,1775665510.579955,599616446254032700,12799
7.986133,1775665510.579955,599616446254032700,-1
7.993826,1775665510.579955,599616446254032700,-205
8.001518,1775665510.579955,599616446254032700,13311
8.009210,1775665510.579955,599616446254032700,-1
8.016903,1775665510.579955,599616446254032700,-207
8.024595,1775665510.579955,599616446254032700,13311
8.032287,1775665510.579955,599616446254032700,-1
8.039979,1775665510.579955,599616446254032700,-200
8.047672,1775665510.579955,599616446254032700,15103
8.055364,1775665510.579955,599616446254032700,-1
8.063056,1775665510.579955,599616446254032700,-198
8.070749,1775665510.579955,599616446254032700,16127
8.078441,1775665510.579955,599616446254032700,-1
8.086133,1775665510.579955,599616446254032700,-200
8.093826,1775665510.579955,599616446254032700,9215
8.101518,1775665510.579955,599616446254032700,-1
8.109210,1775665510.579955,599616446254032700,-221
8.116902,1775665510.579955,599616446254032700,15103
8.124595,1775665510.579955,599616446254032700,-1
8.132287,1775665510.579955,599616446254032700,-185
7.863156,1775665511.209930,599616446815670712,-173
7.870848,1775665511.209930,599616446815670712,26623
7.878541,1775665511.209930,599616446815670712,-1
7.886233,1775665511.209930,599616446815670712,-133
7.893925,1775665511.209930,599616446815670712,29951
7.901617,1775665511.209930,599616446815670712,-1
7.909310,1775665511.209930,599616446815670712,-167
7.917002,1775665511.209930,599616446815670712,19199
7.924694,1775665511.209930,599616446815670712,-1
7.932387,1775665511.209930,599616446815670712,-176
7.940079,1775665511.209930,599616446815670712,16895
7.947771,1775665511.209930,599616446815670712,-1
7.955464,1775665511.209930,599616446815670712,-232
7.963156,1775665511.209930,599616446815670712,4607
7.970848,1775665511.209930,599616446815670712,-1
7.978541,1775665511.209930,599616446815670712,-223
7.986233,1775665511.209930,599616446815670712,8703
7.993925,1775665511.209930,599616446815670712,-1
8.001617,1775665511.209930,599616446815670712,-228
8.009310,1775665511.209930,599616446815670712,8703
8.017002,1775665511.209930,599616446815670712,-1
8.024694,1775665511.209930,599616446815670712,-219
8.032387,1775665511.209930,599616446815670712,11007
8.040079,1775665511.209930,599616446815670712,-1
8.047771,1775665511.209930,599616446815670712,-210
8.055464,1775665511.209930,599616446815670712,14591
8.063156,1775665511.209930,599616446815670712,-1
8.070848,1775665511.209930,599616446815670712,-198
8.078541,1775665511.209930,599616446815670712,13823
8.086233,1775665511.209930,599616446815670712,-1
8.093925,1775665511.209930,599616446815670712,-205
8.101617,1775665511.209930,599616446815670712,13311
8.109310,1775665511.209930,599616446815670712,-1
8.117002,1775665511.209930,599616446815670712,-200
8.124694,1775665511.209930,599616446815670712,-32001
8.132387,1775665511.209930,599616446815670712,-1
8.140079,1775665511.209930,599616446815670712,117
8.147771,1775665511.209930,599616446815670712,-27136
8.155464,1775665511.209930,599616446815670712,1
8.163156,1775665511.209930,599616446815670712,252
8.170848,1775665511.209930,599616446815670712,30720
8.178540,1775665511.209930,599616446815670712,-2
8.186233,1775665511.209930,599616446815670712,-772
8.193925,1775665511.209930,599616446815670712,-6657
8.201617,1775665511.209930,599616446815670712,-3
8.209310,1775665511.209930,599616446815670712,-243
8.217002,1775665511.209930,599616446815670712,12031
8.224694,1775665511.209930,599616446815670712,-1
8.232387,1775665511.209930,599616446815670712,-221
8.240079,1775665511.209930,599616446815670712,19199
8.247771,1775665511.209930,599616446815670712,-1
8.255464,1775665511.209930,599616446815670712,-171
8.263156,1775665511.209930,599616446815670712,20223
8.270848,1775665511.209930,599616446815670712,-1
8.278540,1775665511.209930,599616446815670712,-171
8.286233,1775665511.209930,599616446815670712,23039
8.293925,1775665511.209930,599616446815670712,-1
8.301618,1775665511.209930,599616446815670712,-164
8.309310,1775665511.209930,599616446815670712,26111
8.317002,1775665511.209930,599616446815670712,-1
8.324694,1775665511.209930,599616446815670712,-153
8.332387,1775665511.209930,599616446815670712,26623
8.340079,1775665511.209930,599616446815670712,-1
8.347771,1775665511.209930,599616446815670712,-164
8.355464,1775665511.209930,599616446815670712,20223
8.363156,1775665511.209930,599616446815670712,-1
8.370848,1775665511.209930,599616446815670712,-167
8.378541,1775665511.209930,599616446815670712,27135
8.386233,1775665511.209930,599616446815670712,-1
8.393925,1775665511.209930,599616446815670712,-144
8.401617,1775665511.209930,599616446815670712,31743
8.409310,1775665511.209930,599616446815670712,-1
8.417002,1775665511.209930,599616446815670712,-121
8.424694,1775665511.209930,599616446815670712,-29185
8.432387,1775665511.209930,599616446815670712,-1
8.440079,1775665511.209930,599616446815670712,-101
8.447771,1775665511.209930,599616446815670712,-22785
8.455464,1775665511.209930,599616446815670712,-1
8.463156,1775665511.209930,599616446815670712,-76
8.470848,1775665511.209930,599616446815670712,-13569
8.478541,1775665511.209930,599616446815670712,-1
8.486233,1775665511.209930,599616446815670712,-31
8.493925,1775665511.209930,599616446815670712,-4353
8.501617,1775665511.209930,599616446815670712,-1
8.509310,1775665511.209930,599616446815670712,-4
8.517002,1775665511.209930,599616446815670712,1279
8.524694,1775665511.209930,599616446815670712,0
8.532387,1775665511.209930,599616446815670712,0
8.540079,1775665511.209930,599616446815670712,-2304
8.547771,1775665511.209930,599616446815670712,-1
8.555464,1775665511.209930,599616446815670712,-24
8.563156,1775665511.209930,599616446815670712,-15105
8.570848,1775665511.209930,599616446815670712,-1
8.578541,1775665511.209930,599616446815670712,-108
8.586233,1775665511.209930,599616446815670712,27135
8.593925,1775665511.209930,599616446815670712,-1
8.601617,1775665511.209930,599616446815670712,-191
8.609310,1775665511.209930,599616446815670712,6911
8.617002,1775665511.209930,599616446815670712,-1
8.624694,1775665511.209930,599616446815670712,-270
8.632387,1775665511.209930,599616446815670712,-10497
8.640079,1775665511.209930,599616446815670712,-2
8.647771,1775665511.209930,599616446815670712,-298
8.655464,1775665511.209930,599616446815670712,-9217
8.663156,1775665511.209930,599616446815670712,-2
8.670848,1775665511.209930,599616446815670712,-293
8.678540,1775665511.209930,599616446815670712,-8705
8.686233,1775665511.209930,599616446815670712,-2
8.693925,1775665511.209930,599616446815670712,-286
8.424814,1775665511.706222,599616447377329070,-284
8.432507,1775665511.706222,599616447377329070,-5889
8.440199,1775665511.706222,599616447377329070,-2
8.447891,1775665511.706222,599616447377329070,-273
8.455584,1775665511.706222,599616447377329070,-3329
8.463276,1775665511.706222,599616447377329070,-2
8.470968,1775665511.706222,599616447377329070,-270
8.478660,1775665511.706222,599616447377329070,-2817
8.486353,1775665511.706222,599616447377329070,-2
8.494045,1775665511.706222,599616447377329070,-259
8.501737,1775665511.706222,599616447377329070,2303
8.509430,1775665511.706222,599616447377329070,-1
8.517122,1775665511.706222,599616447377329070,-241
8.524814,1775665511.706222,599616447377329070,4607
8.532507,1775665511.706222,599616447377329070,-1
8.540199,1775665511.706222,599616447377329070,-241
8.547891,1775665511.706222,599616447377329070,3583
8.555583,1775665511.706222,599616447377329070,-1
8.563276,1775665511.706222,599616447377329070,-241
8.570968,1775665511.706222,599616447377329070,5119
8.578660,1775665511.706222,599616447377329070,-1
8.586353,1775665511.706222,599616447377329070,-239
8.594045,1775665511.706222,599616447377329070,1791
8.601737,1775665511.706222,599616447377329070,-1
8.609430,1775665511.706222,599616447377329070,-266
8.617122,1775665511.706222,599616447377329070,-6913
8.624814,1775665511.706222,599616447377329070,-2
8.632507,1775665511.706222,599616447377329070,-275
8.640199,1775665511.706222,599616447377329070,1791
8.647891,1775665511.706222,599616447377329070,-1
8.655584,1775665511.706222,599616447377329070,-246
8.663276,1775665511.706222,599616447377329070,3583
8.670968,1775665511.706222,599616447377329070,-1
8.678660,1775665511.706222,599616447377329070,-237
8.686353,1775665511.706222,599616447377329070,5887
8.694045,1775665511.706222,599616447377329070,-1
8.701737,1775665511.706222,599616447377329070,-232
8.709430,1775665511.706222,599616447377329070,9727
8.717122,1775665511.706222,599616447377329070,-1
8.724814,1775665511.706222,599616447377329070,-212
8.732507,1775665511.706222,599616447377329070,11519
8.740199,1775665511.706222,599616447377329070,-1
8.747891,1775665511.706222,599616447377329070,-214
8.755584,1775665511.706222,599616447377329070,11007
8.763276,1775665511.706222,599616447377329070,-1
8.770968,1775665511.706222,599616447377329070,-205
8.778660,1775665511.706222,599616447377329070,15615
8.786353,1775665511.706222,599616447377329070,-1
8.794045,1775665511.706222,599616447377329070,-196
8.801737,1775665511.706222,599616447377329070,15615
8.809430,1775665511.706222,599616447377329070,-1
8.817122,1775665511.706222,599616447377329070,-194
8.824814,1775665511.706222,599616447377329070,16127
8.832507,1775665511.706222,599616447377329070,-1
8.840199,1775665511.706222,599616447377329070,-191
8.847891,1775665511.706222,599616447377329070,18431
8.855584,1775665511.706222,599616447377329070,-1
8.863276,1775665511.706222,599616447377329070,-182
8.870968,1775665511.706222,599616447377329070,17919
8.878660,1775665511.706222,599616447377329070,-1
8.886353,1775665511.706222,599616447377329070,-205
8.894045,1775665511.706222,599616447377329070,12799
8.901737,1775665511.706222,599616447377329070,-1
8.909430,1775665511.706222,599616447377329070,-200
8.917122,1775665511.706222,599616447377329070,14591
8.924814,1775665511.706222,599616447377329070,-1
8.932507,1775665511.706222,599616447377329070,-194
8.940199,1775665511.706222,599616447377329070,17919
8.947891,1775665511.706222,599616447377329070,-1
8.955584,1775665511.706222,599616447377329070,-189
8.963276,1775665511.706222,599616447377329070,17407
8.970968,1775665511.706222,599616447377329070,-1
8.978660,1775665511.706222,599616447377329070,-187
8.986353,1775665511.706222,599616447377329070,19711
8.994045,1775665511.706222,599616447377329070,-1
9.001737,1775665511.706222,599616447377329070,-169
9.009430,1775665511.706222,599616447377329070,26623
9.017122,1775665511.706222,599616447377329070,-1
9.024814,1775665511.706222,599616447377329070,-130
9.032507,1775665511.706222,599616447377329070,-27905
9.040199,1775665511.706222,599616447377329070,-1
9.047891,1775665511.706222,599616447377329070,-110
9.055583,1775665511.706222,599616447377329070,31231
9.063276,1775665511.706222,599616447377329070,-1
9.070968,1775665511.706222,599616447377329070,-155
9.078660,1775665511.706222,599616447377329070,25343
9.086353,1775665511.706222,599616447377329070,-1
9.094045,1775665511.706222,599616447377329070,-158
9.101737,1775665511.706222,599616447377329070,22015
9.109430,1775665511.706222,599616447377329070,-1
9.117122,1775665511.706222,599616447377329070,-194
9.124814,1775665511.706222,599616447377329070,13311
9.132507,1775665511.706222,599616447377329070,-1
9.140199,1775665511.706222,599616447377329070,-203
9.147891,1775665511.706222,599616447377329070,10495
9.155584,1775665511.706222,599616447377329070,-1
9.163276,1775665511.706222,599616447377329070,-228
9.170968,1775665511.706222,599616447377329070,11007
9.178660,1775665511.706222,599616447377329070,-1
9.186353,1775665511.706222,599616447377329070,-207
9.194045,1775665511.706222,599616447377329070,13823
9.201737,1775665511.706222,599616447377329070,-1
9.209430,1775665511.706222,599616447377329070,-194
9.217122,1775665511.706222,599616447377329070,17407
9.224814,1775665511.706222,599616447377329070,-1
9.232507,1775665511.706222,599616447377329070,-187
9.240199,1775665511.706222,599616447377329070,19711
9.247891,1775665511.706222,599616447377329070,-1
9.255584,1775665511.706222,599616447377329070,-178
8.986473,1775665512.245952,599616447938987428,-182
8.994165,1775665512.245952,599616447938987428,31231
9.001857,1775665512.245952,599616447938987428,-1
9.009550,1775665512.245952,599616447938987428,76
9.017242,1775665512.245952,599616447938987428,-25344
9.024934,1775665512.245952,599616447938987428,1
9.032627,1775665512.245952,599616447938987428,420
9.040319,1775665512.245952,599616447938987428,22784
9.048011,1775665512.245952,599616447938987428,-1
9.055703,1775665512.245952,599616447938987428,-715
9.063396,1775665512.245952,599616447938987428,-22273
9.071088,1775665512.245952,599616447938987428,-3
9.078780,1775665512.245952,599616447938987428,-246
9.086473,1775665512.245952,599616447938987428,16127
9.094165,1775665512.245952,599616447938987428,-1
9.101857,1775665512.245952,599616447938987428,-250
9.109550,1775665512.245952,599616447938987428,13311
9.117242,1775665512.245952,599616447938987428,-1
9.124934,1775665512.245952,599616447938987428,-178
9.132627,1775665512.245952,599616447938987428,12799
9.140319,1775665512.245952,599616447938987428,-1
9.148011,1775665512.245952,599616447938987428,-216
9.155703,1775665512.245952,599616447938987428,15615
9.163396,1775665512.245952,599616447938987428,-1
9.171088,1775665512.245952,599616447938987428,-180
9.178780,1775665512.245952,599616447938987428,19711
9.186473,1775665512.245952,599616447938987428,-1
9.194165,1775665512.245952,599616447938987428,-176
9.201857,1775665512.245952,599616447938987428,23807
9.209550,1775665512.245952,599616447938987428,-1
9.217242,1775665512.245952,599616447938987428,-160
9.224934,1775665512.245952,599616447938987428,26111
9.232627,1775665512.245952,599616447938987428,-1
9.240319,1775665512.245952,599616447938987428,-144
9.248011,1775665512.245952,599616447938987428,29951
9.255703,1775665512.245952,599616447938987428,-1
9.263396,1775665512.245952,599616447938987428,-133
9.271088,1775665512.245952,599616447938987428,-30721
9.278780,1775665512.245952,599616447938987428,-1
9.286473,1775665512.245952,599616447938987428,-112
9.294165,1775665512.245952,599616447938987428,-26113
9.301857,1775665512.245952,599616447938987428,-1
9.309550,1775665512.245952,599616447938987428,-83
9.317242,1775665512.245952,599616447938987428,-16385
9.324934,1775665512.245952,599616447938987428,-1
9.332627,1775665512.245952,599616447938987428,-51
9.340319,1775665512.245952,599616447938987428,-7681
9.348011,1775665512.245952,599616447938987428,-1
9.355703,1775665512.245952,599616447938987428,-13
9.363396,1775665512.245952,599616447938987428,767
9.371088,1775665512.245952,599616447938987428,0
9.378780,1775665512.245952,599616447938987428,15
9.386473,1775665512.245952,599616447938987428,3840
9.394165,1775665512.245952,599616447938987428,0
9.401857,1775665512.245952,599616447938987428,11
9.409550,1775665512.245952,599616447938987428,-512
9.417242,1775665512.245952,599616447938987428,-1
9.424934,1775665512.245952,599616447938987428,-29
9.432626,1775665512.245952,599616447938987428,-14081
9.440319,1775665512.245952,599616447938987428,-1
9.448011,1775665512.245952,599616447938987428,-88
9.455703,1775665512.245952,599616447938987428,31743
9.463396,1775665512.245952,599616447938987428,-1
9.471088,1775665512.245952,599616447938987428,-176
9.478780,1775665512.245952,599616447938987428,12799
9.486473,1775665512.245952,599616447938987428,-1
9.494165,1775665512.245952,599616447938987428,-234
9.501857,1775665512.245952,599616447938987428,2303
9.509550,1775665512.245952,599616447938987428,-1
9.517242,1775665512.245952,599616447938987428,-255
9.524934,1775665512.245952,599616447938987428,-513
9.532627,1775665512.245952,599616447938987428,-2
9.540319,1775665512.245952,599616447938987428,-264
9.548011,1775665512.245952,599616447938987428,-1
9.555703,1775665512.245952,599616447938987428,-2
9.563396,1775665512.245952,599616447938987428,-250
9.571088,1775665512.245952,599616447938987428,3583
9.578780,1775665512.245952,599616447938987428,-1
9.586473,1775665512.245952,599616447938987428,-241
9.594165,1775665512.245952,599616447938987428,1791
9.601857,1775665512.245952,599616447938987428,-1
9.609550,1775665512.245952,599616447938987428,-252
9.617242,1775665512.245952,599616447938987428,2815
9.624934,1775665512.245952,599616447938987428,-1
9.632627,1775665512.245952,599616447938987428,-241
9.640319,1775665512.245952,599616447938987428,6399
9.648011,1775665512.245952,599616447938987428,-1
9.655703,1775665512.245952,599616447938987428,-228
9.663396,1775665512.245952,599616447938987428,7423
9.671088,1775665512.245952,599616447938987428,-1
9.678780,1775665512.245952,599616447938987428,-232
9.686473,1775665512.245952,599616447938987428,5119
9.694165,1775665512.245952,599616447938987428,-1
9.701857,1775665512.245952,599616447938987428,-228
9.709550,1775665512.245952,599616447938987428,11007
9.717242,1775665512.245952,599616447938987428,-1
9.724934,1775665512.245952,599616447938987428,-216
9.732627,1775665512.245952,599616447938987428,6911
9.740319,1775665512.245952,599616447938987428,-1
9.748011,1775665512.245952,599616447938987428,-230
9.755703,1775665512.245952,599616447938987428,9727
9.763396,1775665512.245952,599616447938987428,-1
9.771088,1775665512.245952,599616447938987428,-210
9.778780,1775665512.245952,599616447938987428,12799
9.786473,1775665512.245952,599616447938987428,-1
9.794165,1775665512.245952,599616447938987428,-205
9.801857,1775665512.245952,599616447938987428,13823
9.809550,1775665512.245952,599616447938987428,-1
9.817242,1775665512.245952,599616447938987428,-205
9.548101,1775665512.829846,599616448500615270,-210
9.555793,1775665512.829846,599616448500615270,12799
9.563485,1775665512.829846,599616448500615270,-1
9.571177,1775665512.829846,599616448500615270,-198
9.578870,1775665512.829846,599616448500615270,15615
9.586562,1775665512.829846,599616448500615270,-1
9.594254,1775665512.829846,599616448500615270,-207
9.601947,1775665512.829846,599616448500615270,9215
9.609639,1775665512.829846,599616448500615270,-1
9.617331,1775665512.829846,599616448500615270,-216
9.625024,1775665512.829846,599616448500615270,14591
9.632716,1775665512.829846,599616448500615270,-1
9.640408,1775665512.829846,599616448500615270,-194
9.648100,1775665512.829846,599616448500615270,16127
9.655793,1775665512.829846,599616448500615270,-1
9.663485,1775665512.829846,599616448500615270,-200
9.671178,1775665512.829846,599616448500615270,11007
9.678870,1775665512.829846,599616448500615270,-1
9.686562,1775665512.829846,599616448500615270,-214
9.694254,1775665512.829846,599616448500615270,15615
9.701947,1775665512.829846,599616448500615270,-1
9.709639,1775665512.829846,599616448500615270,-187
9.717331,1775665512.829846,599616448500615270,16895
9.725024,1775665512.829846,599616448500615270,-1
9.732716,1775665512.829846,599616448500615270,-191
9.740408,1775665512.829846,599616448500615270,17919
9.748101,1775665512.829846,599616448500615270,-1
9.755793,1775665512.829846,599616448500615270,-180
9.763485,1775665512.829846,599616448500615270,22015
9.771177,1775665512.829846,599616448500615270,-1
9.778870,1775665512.829846,599616448500615270,-171
9.786562,1775665512.829846,599616448500615270,21503
9.794254,1775665512.829846,599616448500615270,-1
9.801947,1775665512.829846,599616448500615270,-171
9.809639,1775665512.829846,599616448500615270,22527
9.817331,1775665512.829846,599616448500615270,-1
9.825024,1775665512.829846,599616448500615270,-169
9.832716,1775665512.829846,599616448500615270,23039
9.840408,1775665512.829846,599616448500615270,-1
9.848101,1775665512.829846,599616448500615270,-162
9.855793,1775665512.829846,599616448500615270,23807
9.863485,1775665512.829846,599616448500615270,-1
9.871177,1775665512.829846,599616448500615270,-169
9.878870,1775665512.829846,599616448500615270,22527
9.886562,1775665512.829846,599616448500615270,-1
9.894254,1775665512.829846,599616448500615270,-160
9.901947,1775665512.829846,599616448500615270,26623
9.909639,1775665512.829846,599616448500615270,-1
9.917331,1775665512.829846,599616448500615270,-155
9.925024,1775665512.829846,599616448500615270,24319
9.932716,1775665512.829846,599616448500615270,-1
9.940408,1775665512.829846,599616448500615270,-180
9.948101,1775665512.829846,599616448500615270,18431
9.955793,1775665512.829846,599616448500615270,-1
9.963485,1775665512.829846,599616448500615270,-162
9.971177,1775665512.829846,599616448500615270,29951
9.978870,1775665512.829846,599616448500615270,-1
9.986562,1775665512.829846,599616448500615270,-133
9.994254,1775665512.829846,599616448500615270,-27905
10.001947,1775665512.829846,599616448500615270,-1
10.009639,1775665512.829846,599616448500615270,-94
10.017331,1775665512.829846,599616448500615270,-27905
10.025024,1775665512.829846,599616448500615270,-1
10.032716,1775665512.829846,599616448500615270,-135
10.040408,1775665512.829846,599616448500615270,29439
10.048101,1775665512.829846,599616448500615270,-1
10.055793,1775665512.829846,599616448500615270,-140
10.063485,1775665512.829846,599616448500615270,28415
10.071177,1775665512.829846,599616448500615270,-1
10.078870,1775665512.829846,599616448500615270,-171
10.086562,1775665512.829846,599616448500615270,16895
10.094254,1775665512.829846,599616448500615270,-1
10.101947,1775665512.829846,599616448500615270,-187
10.109639,1775665512.829846,599616448500615270,18431
10.117331,1775665512.829846,599616448500615270,-1
10.125024,1775665512.829846,599616448500615270,-187
10.132716,1775665512.829846,599616448500615270,19199
10.140408,1775665512.829846,599616448500615270,-1
10.148100,1775665512.829846,599616448500615270,-182
10.155793,1775665512.829846,599616448500615270,19199
10.163485,1775665512.829846,599616448500615270,-1
10.171178,1775665512.829846,599616448500615270,-171
10.178870,1775665512.829846,599616448500615270,23807
10.186562,1775665512.829846,599616448500615270,-1
10.194254,1775665512.829846,599616448500615270,-167
10.201947,1775665512.829846,599616448500615270,22015
10.209639,1775665512.829846,599616448500615270,-1
10.217331,1775665512.829846,599616448500615270,-167
10.225024,1775665512.829846,599616448500615270,25343
10.232716,1775665512.829846,599616448500615270,-1
10.240408,1775665512.829846,599616448500615270,-155
10.248101,1775665512.829846,599616448500615270,-21505
10.255793,1775665512.829846,599616448500615270,-1
10.263485,1775665512.829846,599616448500615270,169
10.271177,1775665512.829846,599616448500615270,-11008
10.278870,1775665512.829846,599616448500615270,1
10.286562,1775665512.829846,599616448500615270,336
10.294254,1775665512.829846,599616448500615270,-11776
10.301947,1775665512.829846,599616448500615270,-2
10.309639,1775665512.829846,599616448500615270,-695
10.317331,1775665512.829846,599616448500615270,22783
10.325024,1775665512.829846,599616448500615270,-2
10.332716,1775665512.829846,599616448500615270,-126
10.340408,1775665512.829846,599616448500615270,19711
10.348101,1775665512.829846,599616448500615270,-1
10.355793,1775665512.829846,599616448500615270,-221
10.363485,1775665512.829846,599616448500615270,27135
10.371177,1775665512.829846,599616448500615270,-1
10.378870,1775665512.829846,599616448500615270,-155
