time,t_wall,t_device_ns,ecg
0.000000,1775668802.781569,599617623504346090,-9
0.007692,1775668802.781569,599617623504346090,235
0.015385,1775668802.781569,599617623504346090,748
0.023077,1775668802.781569,599617623504346090,1116
0.030769,1775668802.781569,599617623504346090,1196
0.038461,1775668802.781569,599617623504346090,1314
0.046154,1775668802.781569,599617623504346090,1463
0.053846,1775668802.781569,599617623504346090,1479
0.061538,1775668802.781569,599617623504346090,1481
0.069231,1775668802.781569,599617623504346090,1518
0.076923,1775668802.781569,599617623504346090,1529
0.084615,1775668802.781569,599617623504346090,1538
0.092308,1775668802.781569,599617623504346090,1556
0.100000,1775668802.781569,599617623504346090,1543
0.107692,1775668802.781569,599617623504346090,1506
0.115385,1775668802.781569,599617623504346090,1495
0.123077,1775668802.781569,599617623504346090,1497
0.130769,1775668802.781569,599617623504346090,1486
0.138461,1775668802.781569,599617623504346090,1488
0.146154,1775668802.781569,599617623504346090,1508
0.153846,1775668802.781569,599617623504346090,1497
0.161538,1775668802.781569,599617623504346090,1456
0.169231,1775668802.781569,599617623504346090,1428
0.176923,1775668802.781569,599617623504346090,1419
0.184615,1775668802.781569,599617623504346090,1424
0.192308,1775668802.781569,599617623504346090,1415
0.200000,1775668802.781569,599617623504346090,1390
0.207692,1775668802.781569,599617623504346090,1390
0.215385,1775668802.781569,599617623504346090,1424
0.223077,1775668802.781569,599617623504346090,1565
0.230769,1775668802.781569,599617623504346090,1812
0.238461,1775668802.781569,599617623504346090,1794
0.246154,1775668802.781569,599617623504346090,1292
0.253846,1775668802.781569,599617623504346090,766
0.261538,1775668802.781569,599617623504346090,762
0.269231,1775668802.781569,599617623504346090,1070
0.276923,1775668802.781569,599617623504346090,1198
0.284615,1775668802.781569,599617623504346090,1150
0.292308,1775668802.781569,599617623504346090,1143
0.300000,1775668802.781569,599617623504346090,1155
0.307692,1775668802.781569,599617623504346090,1120
0.315385,1775668802.781569,599617623504346090,1097
0.323077,1775668802.781569,599617623504346090,1113
0.330769,1775668802.781569,599617623504346090,1097
0.338462,1775668802.781569,599617623504346090,1045
0.346154,1775668802.781569,599617623504346090,1024
0.353846,1775668802.781569,599617623504346090,1027
0.361538,1775668802.781569,599617623504346090,1013
0.369231,1775668802.781569,599617623504346090,990
0.376923,1775668802.781569,599617623504346090,965
0.384615,1775668802.781569,599617623504346090,951
0.392308,1775668802.781569,599617623504346090,945
0.400000,1775668802.781569,599617623504346090,931
0.407692,1775668802.781569,599617623504346090,915
0.415385,1775668802.781569,599617623504346090,913
0.423077,1775668802.781569,599617623504346090,906
0.430769,1775668802.781569,599617623504346090,897
0.438462,1775668802.781569,599617623504346090,894
0.446154,1775668802.781569,599617623504346090,892
0.453846,1775668802.781569,599617623504346090,885
0.461538,1775668802.781569,599617623504346090,887
0.469231,1775668802.781569,599617623504346090,892
0.476923,1775668802.781569,599617623504346090,890
0.484615,1775668802.781569,599617623504346090,878
0.492308,1775668802.781569,599617623504346090,874
0.500000,1775668802.781569,599617623504346090,876
0.507692,1775668802.781569,599617623504346090,842
0.515385,1775668802.781569,599617623504346090,766
0.523077,1775668802.781569,599617623504346090,714
0.530769,1775668802.781569,599617623504346090,673
0.538461,1775668802.781569,599617623504346090,604
0.546154,1775668802.781569,599617623504346090,543
0.553846,1775668802.781569,599617623504346090,499
0.561623,1775668803.231342,599617624065968844,454
0.569315,1775668803.231342,599617624065968844,420
0.577007,1775668803.231342,599617624065968844,394
0.584700,1775668803.231342,599617624065968844,376
0.592392,1775668803.231342,599617624065968844,369
0.600084,1775668803.231342,599617624065968844,351
0.607777,1775668803.231342,599617624065968844,317
0.615469,1775668803.231342,599617624065968844,308
0.623161,1775668803.231342,599617624065968844,315
0.630854,1775668803.231342,599617624065968844,301
0.638546,1775668803.231342,599617624065968844,280
0.646238,1775668803.231342,599617624065968844,278
0.653930,1775668803.231342,599617624065968844,273
0.661623,1775668803.231342,599617624065968844,264
0.669315,1775668803.231342,599617624065968844,257
0.677007,1775668803.231342,599617624065968844,251
0.684700,1775668803.231342,599617624065968844,239
0.692392,1775668803.231342,599617624065968844,223
0.700084,1775668803.231342,599617624065968844,210
0.707777,1775668803.231342,599617624065968844,210
0.715469,1775668803.231342,599617624065968844,212
0.723161,1775668803.231342,599617624065968844,210
0.730853,1775668803.231342,599617624065968844,194
0.738546,1775668803.231342,599617624065968844,178
0.746238,1775668803.231342,599617624065968844,166
0.753930,1775668803.231342,599617624065968844,143
0.761623,1775668803.231342,599617624065968844,125
0.769315,1775668803.231342,599617624065968844,130
0.777007,1775668803.231342,599617624065968844,125
0.784700,1775668803.231342,599617624065968844,116
0.792392,1775668803.231342,599617624065968844,116
0.800084,1775668803.231342,599617624065968844,111
0.807777,1775668803.231342,599617624065968844,105
0.815469,1775668803.231342,599617624065968844,98
0.823161,1775668803.231342,599617624065968844,93
0.830853,1775668803.231342,599617624065968844,84
0.838546,1775668803.231342,599617624065968844,79
0.846238,1775668803.231342,599617624065968844,75
0.853930,1775668803.231342,599617624065968844,61
0.861623,1775668803.231342,599617624065968844,43
0.869315,1775668803.231342,599617624065968844,36
0.877007,1775668803.231342,599617624065968844,38
0.884700,1775668803.231342,599617624065968844,52
0.892392,1775668803.231342,599617624065968844,52
0.900084,1775668803.231342,599617624065968844,34
0.907777,1775668803.231342,599617624065968844,29
0.915469,1775668803.231342,599617624065968844,34
0.923161,1775668803.231342,599617624065968844,22
0.930853,1775668803.231342,599617624065968844,11
0.938546,1775668803.231342,599617624065968844,4
0.946238,1775668803.231342,599617624065968844,2
0.953930,1775668803.231342,599617624065968844,-2
0.961623,1775668803.231342,599617624065968844,2
0.969315,1775668803.231342,599617624065968844,6
0.977007,1775668803.231342,599617624065968844,18
0.984700,1775668803.231342,599617624065968844,36
0.992392,1775668803.231342,599617624065968844,36
1.000084,1775668803.231342,599617624065968844,13
1.007776,1775668803.231342,599617624065968844,-9
1.015469,1775668803.231342,599617624065968844,-31
1.023161,1775668803.231342,599617624065968844,-38
1.030854,1775668803.231342,599617624065968844,-45
1.038546,1775668803.231342,599617624065968844,-68
1.046238,1775668803.231342,599617624065968844,-70
1.053930,1775668803.231342,599617624065968844,-70
1.061623,1775668803.231342,599617624065968844,-95
1.069315,1775668803.231342,599617624065968844,-91
1.077007,1775668803.231342,599617624065968844,-73
1.084700,1775668803.231342,599617624065968844,-95
1.092392,1775668803.231342,599617624065968844,-123
1.100084,1775668803.231342,599617624065968844,-116
1.107777,1775668803.231342,599617624065968844,-89
1.115469,1775668803.231342,599617624065968844,-82
1.123230,1775668803.861721,599617624627576338,-95
1.130922,1775668803.861721,599617624627576338,-93
1.138615,1775668803.861721,599617624627576338,-77
1.146307,1775668803.861721,599617624627576338,-43
1.153999,1775668803.861721,599617624627576338,45
1.161692,1775668803.861721,599617624627576338,269
1.169384,1775668803.861721,599617624627576338,497
1.177076,1775668803.861721,599617624627576338,287
1.184769,1775668803.861721,599617624627576338,-369
1.192461,1775668803.861721,599617624627576338,-744
1.200153,1775668803.861721,599617624627576338,-534
1.207846,1775668803.861721,599617624627576338,-237
1.215538,1775668803.861721,599617624627576338,-132
1.223230,1775668803.861721,599617624627576338,-93
1.230922,1775668803.861721,599617624627576338,-82
1.238615,1775668803.861721,599617624627576338,-98
1.246307,1775668803.861721,599617624627576338,-100
1.253999,1775668803.861721,599617624627576338,-93
1.261692,1775668803.861721,599617624627576338,-89
1.269384,1775668803.861721,599617624627576338,-70
1.277076,1775668803.861721,599617624627576338,-66
1.284769,1775668803.861721,599617624627576338,-84
1.292461,1775668803.861721,599617624627576338,-79
1.300153,1775668803.861721,599617624627576338,-50
1.307846,1775668803.861721,599617624627576338,-45
1.315538,1775668803.861721,599617624627576338,-63
1.323230,1775668803.861721,599617624627576338,-61
1.330922,1775668803.861721,599617624627576338,-41
1.338615,1775668803.861721,599617624627576338,-36
1.346307,1775668803.861721,599617624627576338,-43
1.353999,1775668803.861721,599617624627576338,-34
1.361692,1775668803.861721,599617624627576338,-31
1.369384,1775668803.861721,599617624627576338,-34
1.377076,1775668803.861721,599617624627576338,-11
1.384769,1775668803.861721,599617624627576338,18
1.392461,1775668803.861721,599617624627576338,41
1.400153,1775668803.861721,599617624627576338,61
1.407846,1775668803.861721,599617624627576338,79
1.415538,1775668803.861721,599617624627576338,79
1.423230,1775668803.861721,599617624627576338,63
1.430923,1775668803.861721,599617624627576338,73
1.438615,1775668803.861721,599617624627576338,91
1.446307,1775668803.861721,599617624627576338,73
1.453999,1775668803.861721,599617624627576338,20
1.461692,1775668803.861721,599617624627576338,-27
1.469384,1775668803.861721,599617624627576338,-59
1.477076,1775668803.861721,599617624627576338,-93
1.484769,1775668803.861721,599617624627576338,-134
1.492461,1775668803.861721,599617624627576338,-178
1.500153,1775668803.861721,599617624627576338,-196
1.507846,1775668803.861721,599617624627576338,-178
1.515538,1775668803.861721,599617624627576338,-205
1.523230,1775668803.861721,599617624627576338,-253
1.530923,1775668803.861721,599617624627576338,-237
1.538615,1775668803.861721,599617624627576338,-212
1.546307,1775668803.861721,599617624627576338,-214
1.553999,1775668803.861721,599617624627576338,-203
1.561692,1775668803.861721,599617624627576338,-200
1.569384,1775668803.861721,599617624627576338,-221
1.577076,1775668803.861721,599617624627576338,-221
1.584769,1775668803.861721,599617624627576338,-203
1.592461,1775668803.861721,599617624627576338,-198
1.600153,1775668803.861721,599617624627576338,-200
1.607846,1775668803.861721,599617624627576338,-196
1.615538,1775668803.861721,599617624627576338,-194
1.623230,1775668803.861721,599617624627576338,-187
1.630922,1775668803.861721,599617624627576338,-168
1.638615,1775668803.861721,599617624627576338,-187
1.646307,1775668803.861721,599617624627576338,-210
1.653999,1775668803.861721,599617624627576338,-175
1.661692,1775668803.861721,599617624627576338,-164
1.669384,1775668803.861721,599617624627576338,-214
1.677076,1775668803.861721,599617624627576338,-214
1.684858,1775668804.364858,599617625189204178,-164
1.692550,1775668804.364858,599617625189204178,-175
1.700243,1775668804.364858,599617625189204178,-219
1.707935,1775668804.364858,599617625189204178,-205
1.715627,1775668804.364858,599617625189204178,-191
1.723320,1775668804.364858,599617625189204178,-210
1.731012,1775668804.364858,599617625189204178,-196
1.738704,1775668804.364858,599617625189204178,-191
1.746397,1775668804.364858,599617625189204178,-219
1.754089,1775668804.364858,599617625189204178,-196
1.761781,1775668804.364858,599617625189204178,-178
1.769473,1775668804.364858,599617625189204178,-214
1.777166,1775668804.364858,599617625189204178,-207
1.784858,1775668804.364858,599617625189204178,-168
1.792550,1775668804.364858,599617625189204178,-180
1.800243,1775668804.364858,599617625189204178,-200
1.807935,1775668804.364858,599617625189204178,-184
1.815627,1775668804.364858,599617625189204178,-184
1.823320,1775668804.364858,599617625189204178,-187
1.831012,1775668804.364858,599617625189204178,-164
1.838704,1775668804.364858,599617625189204178,-139
1.846397,1775668804.364858,599617625189204178,-125
1.854089,1775668804.364858,599617625189204178,-132
1.861781,1775668804.364858,599617625189204178,-159
1.869473,1775668804.364858,599617625189204178,-180
1.877166,1775668804.364858,599617625189204178,-178
1.884858,1775668804.364858,599617625189204178,-166
1.892550,1775668804.364858,599617625189204178,-162
1.900243,1775668804.364858,599617625189204178,-171
1.907935,1775668804.364858,599617625189204178,-187
1.915627,1775668804.364858,599617625189204178,-205
1.923320,1775668804.364858,599617625189204178,-205
1.931012,1775668804.364858,599617625189204178,-184
1.938704,1775668804.364858,599617625189204178,-171
1.946396,1775668804.364858,599617625189204178,-166
1.954089,1775668804.364858,599617625189204178,-171
1.961781,1775668804.364858,599617625189204178,-175
1.969473,1775668804.364858,599617625189204178,-157
1.977166,1775668804.364858,599617625189204178,-127
1.984858,1775668804.364858,599617625189204178,-120
1.992550,1775668804.364858,599617625189204178,-109
2.000243,1775668804.364858,599617625189204178,-22
2.007935,1775668804.364858,599617625189204178,166
2.015627,1775668804.364858,599617625189204178,397
2.023320,1775668804.364858,599617625189204178,392
2.031012,1775668804.364858,599617625189204178,-86
2.038704,1775668804.364858,599617625189204178,-652
2.046396,1775668804.364858,599617625189204178,-709
2.054089,1775668804.364858,599617625189204178,-413
2.061781,1775668804.364858,599617625189204178,-212
2.069473,1775668804.364858,599617625189204178,-136
2.077166,1775668804.364858,599617625189204178,-98
2.084858,1775668804.364858,599617625189204178,-100
2.092550,1775668804.364858,599617625189204178,-109
2.100243,1775668804.364858,599617625189204178,-95
2.107935,1775668804.364858,599617625189204178,-84
2.115627,1775668804.364858,599617625189204178,-93
2.123320,1775668804.364858,599617625189204178,-93
2.131012,1775668804.364858,599617625189204178,-84
2.138704,1775668804.364858,599617625189204178,-77
2.146397,1775668804.364858,599617625189204178,-70
2.154089,1775668804.364858,599617625189204178,-63
2.161781,1775668804.364858,599617625189204178,-63
2.169473,1775668804.364858,599617625189204178,-52
2.177166,1775668804.364858,599617625189204178,-34
2.184858,1775668804.364858,599617625189204178,-29
2.192550,1775668804.364858,599617625189204178,-36
2.200243,1775668804.364858,599617625189204178,-27
2.207935,1775668804.364858,599617625189204178,-2
2.215627,1775668804.364858,599617625189204178,11
2.223320,1775668804.364858,599617625189204178,22
2.231012,1775668804.364858,599617625189204178,45
2.238704,1775668804.364858,599617625189204178,59
2.246481,1775668804.896045,599617625750826930,68
2.254173,1775668804.896045,599617625750826930,93
2.261865,1775668804.896045,599617625750826930,116
2.269558,1775668804.896045,599617625750826930,120
2.277250,1775668804.896045,599617625750826930,109
2.284942,1775668804.896045,599617625750826930,93
2.292634,1775668804.896045,599617625750826930,77
2.300327,1775668804.896045,599617625750826930,59
2.308019,1775668804.896045,599617625750826930,29
2.315711,1775668804.896045,599617625750826930,-6
2.323404,1775668804.896045,599617625750826930,-41
2.331096,1775668804.896045,599617625750826930,-79
2.338788,1775668804.896045,599617625750826930,-116
2.346481,1775668804.896045,599617625750826930,-132
2.354173,1775668804.896045,599617625750826930,-143
2.361865,1775668804.896045,599617625750826930,-148
2.369558,1775668804.896045,599617625750826930,-143
2.377250,1775668804.896045,599617625750826930,-152
2.384942,1775668804.896045,599617625750826930,-166
2.392635,1775668804.896045,599617625750826930,-157
2.400327,1775668804.896045,599617625750826930,-143
2.408019,1775668804.896045,599617625750826930,-139
2.415711,1775668804.896045,599617625750826930,-130
2.423404,1775668804.896045,599617625750826930,-120
2.431096,1775668804.896045,599617625750826930,-132
2.438788,1775668804.896045,599617625750826930,-134
2.446481,1775668804.896045,599617625750826930,-105
2.454173,1775668804.896045,599617625750826930,-89
2.461865,1775668804.896045,599617625750826930,-107
2.469558,1775668804.896045,599617625750826930,-93
2.477250,1775668804.896045,599617625750826930,-63
2.484942,1775668804.896045,599617625750826930,-84
2.492635,1775668804.896045,599617625750826930,-114
2.500327,1775668804.896045,599617625750826930,-95
2.508019,1775668804.896045,599617625750826930,-82
2.515711,1775668804.896045,599617625750826930,-77
2.523404,1775668804.896045,599617625750826930,-57
2.531096,1775668804.896045,599617625750826930,-54
2.538788,1775668804.896045,599617625750826930,-89
2.546481,1775668804.896045,599617625750826930,-102
2.554173,1775668804.896045,599617625750826930,-79
2.561865,1775668804.896045,599617625750826930,-47
2.569558,1775668804.896045,599617625750826930,-43
2.577250,1775668804.896045,599617625750826930,-100
2.584942,1775668804.896045,599617625750826930,-143
2.592635,1775668804.896045,599617625750826930,-100
2.600327,1775668804.896045,599617625750826930,-68
2.608019,1775668804.896045,599617625750826930,-91
2.615711,1775668804.896045,599617625750826930,-109
2.623404,1775668804.896045,599617625750826930,-107
2.631096,1775668804.896045,599617625750826930,-98
2.638788,1775668804.896045,599617625750826930,-91
2.646481,1775668804.896045,599617625750826930,-95
2.654173,1775668804.896045,599617625750826930,-102
2.661865,1775668804.896045,599617625750826930,-100
2.669558,1775668804.896045,599617625750826930,-91
2.677250,1775668804.896045,599617625750826930,-100
2.684942,1775668804.896045,599617625750826930,-120
2.692634,1775668804.896045,599617625750826930,-114
2.700327,1775668804.896045,599617625750826930,-91
2.708019,1775668804.896045,599617625750826930,-84
2.715711,1775668804.896045,599617625750826930,-77
2.723404,1775668804.896045,599617625750826930,-63
2.731096,1775668804.896045,599617625750826930,-57
2.738788,1775668804.896045,599617625750826930,-43
2.746481,1775668804.896045,599617625750826930,-22
2.754173,1775668804.896045,599617625750826930,-20
2.761865,1775668804.896045,599617625750826930,-22
2.769558,1775668804.896045,599617625750826930,-4
2.777250,1775668804.896045,599617625750826930,6
2.784942,1775668804.896045,599617625750826930,-11
2.792634,1775668804.896045,599617625750826930,-38
2.800327,1775668804.896045,599617625750826930,-45
2.808083,1775668805.484801,599617626312429342,-34
2.815775,1775668805.484801,599617626312429342,-29
2.823468,1775668805.484801,599617626312429342,-36
2.831160,1775668805.484801,599617626312429342,-43
2.838852,1775668805.484801,599617626312429342,-43
2.846545,1775668805.484801,599617626312429342,-38
2.854237,1775668805.484801,599617626312429342,-29
2.861929,1775668805.484801,599617626312429342,-25
2.869622,1775668805.484801,599617626312429342,-25
2.877314,1775668805.484801,599617626312429342,-22
2.885006,1775668805.484801,599617626312429342,-13
2.892699,1775668805.484801,599617626312429342,-6
2.900391,1775668805.484801,599617626312429342,4
2.908083,1775668805.484801,599617626312429342,47
2.915775,1775668805.484801,599617626312429342,189
2.923468,1775668805.484801,599617626312429342,449
2.931160,1775668805.484801,599617626312429342,582
2.938852,1775668805.484801,599617626312429342,244
2.946545,1775668805.484801,599617626312429342,-340
2.954237,1775668805.484801,599617626312429342,-520
2.961929,1775668805.484801,599617626312429342,-219
2.969622,1775668805.484801,599617626312429342,0
2.977314,1775668805.484801,599617626312429342,-22
2.985006,1775668805.484801,599617626312429342,-25
2.992699,1775668805.484801,599617626312429342,20
3.000391,1775668805.484801,599617626312429342,9
3.008083,1775668805.484801,599617626312429342,-9
3.015775,1775668805.484801,599617626312429342,13
3.023468,1775668805.484801,599617626312429342,25
3.031160,1775668805.484801,599617626312429342,20
3.038852,1775668805.484801,599617626312429342,20
3.046545,1775668805.484801,599617626312429342,13
3.054237,1775668805.484801,599617626312429342,4
3.061929,1775668805.484801,599617626312429342,13
3.069622,1775668805.484801,599617626312429342,20
3.077314,1775668805.484801,599617626312429342,15
3.085006,1775668805.484801,599617626312429342,22
3.092699,1775668805.484801,599617626312429342,34
3.100391,1775668805.484801,599617626312429342,31
3.108083,1775668805.484801,599617626312429342,31
3.115775,1775668805.484801,599617626312429342,38
3.123468,1775668805.484801,599617626312429342,31
3.131160,1775668805.484801,599617626312429342,25
3.138852,1775668805.484801,599617626312429342,61
3.146545,1775668805.484801,599617626312429342,111
3.154237,1775668805.484801,599617626312429342,139
3.161929,1775668805.484801,599617626312429342,139
3.169622,1775668805.484801,599617626312429342,139
3.177314,1775668805.484801,599617626312429342,150
3.185006,1775668805.484801,599617626312429342,155
3.192698,1775668805.484801,599617626312429342,150
3.200391,1775668805.484801,599617626312429342,148
3.208083,1775668805.484801,599617626312429342,155
3.215775,1775668805.484801,599617626312429342,139
3.223468,1775668805.484801,599617626312429342,95
3.231160,1775668805.484801,599617626312429342,57
3.238852,1775668805.484801,599617626312429342,25
3.246545,1775668805.484801,599617626312429342,-9
3.254237,1775668805.484801,599617626312429342,-34
3.261929,1775668805.484801,599617626312429342,-43
3.269622,1775668805.484801,599617626312429342,-61
3.277314,1775668805.484801,599617626312429342,-73
3.285006,1775668805.484801,599617626312429342,-63
3.292699,1775668805.484801,599617626312429342,-68
3.300391,1775668805.484801,599617626312429342,-86
3.308083,1775668805.484801,599617626312429342,-91
3.315775,1775668805.484801,599617626312429342,-98
3.323468,1775668805.484801,599617626312429342,-91
3.331160,1775668805.484801,599617626312429342,-52
3.338852,1775668805.484801,599617626312429342,-36
3.346545,1775668805.484801,599617626312429342,-68
3.354237,1775668805.484801,599617626312429342,-86
3.361929,1775668805.484801,599617626312429342,-84
3.369711,1775668806.067519,599617626874057182,-95
3.377403,1775668806.067519,599617626874057182,-86
3.385096,1775668806.067519,599617626874057182,-57
3.392788,1775668806.067519,599617626874057182,-54
3.400480,1775668806.067519,599617626874057182,-66
3.408172,1775668806.067519,599617626874057182,-75
3.415865,1775668806.067519,599617626874057182,-75
3.423557,1775668806.067519,599617626874057182,-77
3.431249,1775668806.067519,599617626874057182,-98
3.438942,1775668806.067519,599617626874057182,-98
3.446634,1775668806.067519,599617626874057182,-75
3.454326,1775668806.067519,599617626874057182,-75
3.462019,1775668806.067519,599617626874057182,-84
3.469711,1775668806.067519,599617626874057182,-68
3.477403,1775668806.067519,599617626874057182,-61
3.485096,1775668806.067519,599617626874057182,-82
3.492788,1775668806.067519,599617626874057182,-89
3.500480,1775668806.067519,599617626874057182,-75
3.508173,1775668806.067519,599617626874057182,-68
3.515865,1775668806.067519,599617626874057182,-73
3.523557,1775668806.067519,599617626874057182,-82
3.531250,1775668806.067519,599617626874057182,-75
3.538942,1775668806.067519,599617626874057182,-63
3.546634,1775668806.067519,599617626874057182,-68
3.554326,1775668806.067519,599617626874057182,-86
3.562019,1775668806.067519,599617626874057182,-84
3.569711,1775668806.067519,599617626874057182,-57
3.577403,1775668806.067519,599617626874057182,-36
3.585096,1775668806.067519,599617626874057182,-47
3.592788,1775668806.067519,599617626874057182,-59
3.600480,1775668806.067519,599617626874057182,-45
3.608173,1775668806.067519,599617626874057182,-54
3.615865,1775668806.067519,599617626874057182,-93
3.623557,1775668806.067519,599617626874057182,-100
3.631249,1775668806.067519,599617626874057182,-89
3.638942,1775668806.067519,599617626874057182,-93
3.646634,1775668806.067519,599617626874057182,-95
3.654326,1775668806.067519,599617626874057182,-95
3.662019,1775668806.067519,599617626874057182,-105
3.669711,1775668806.067519,599617626874057182,-111
3.677403,1775668806.067519,599617626874057182,-102
3.685096,1775668806.067519,599617626874057182,-95
3.692788,1775668806.067519,599617626874057182,-86
3.700480,1775668806.067519,599617626874057182,-73
3.708173,1775668806.067519,599617626874057182,-57
3.715865,1775668806.067519,599617626874057182,-57
3.723557,1775668806.067519,599617626874057182,-61
3.731249,1775668806.067519,599617626874057182,-41
3.738942,1775668806.067519,599617626874057182,34
3.746634,1775668806.067519,599617626874057182,200
3.754326,1775668806.067519,599617626874057182,353
3.762019,1775668806.067519,599617626874057182,216
3.769711,1775668806.067519,599617626874057182,-225
3.777403,1775668806.067519,599617626874057182,-531
3.785096,1775668806.067519,599617626874057182,-422
3.792788,1775668806.067519,599617626874057182,-162
3.800480,1775668806.067519,599617626874057182,-22
3.808173,1775668806.067519,599617626874057182,6
3.815865,1775668806.067519,599617626874057182,-25
3.823557,1775668806.067519,599617626874057182,-77
3.831249,1775668806.067519,599617626874057182,-54
3.838942,1775668806.067519,599617626874057182,-6
3.846634,1775668806.067519,599617626874057182,6
3.854326,1775668806.067519,599617626874057182,2
3.862019,1775668806.067519,599617626874057182,-36
3.869711,1775668806.067519,599617626874057182,-47
3.877403,1775668806.067519,599617626874057182,-6
3.885096,1775668806.067519,599617626874057182,11
3.892788,1775668806.067519,599617626874057182,0
3.900480,1775668806.067519,599617626874057182,-6
3.908172,1775668806.067519,599617626874057182,0
3.915865,1775668806.067519,599617626874057182,9
3.923557,1775668806.067519,599617626874057182,-2
3.931329,1775668806.653623,599617627435674850,-4
3.939021,1775668806.653623,599617627435674850,18
3.946713,1775668806.653623,599617627435674850,36
3.954406,1775668806.653623,599617627435674850,52
3.962098,1775668806.653623,599617627435674850,79
3.969790,1775668806.653623,599617627435674850,98
3.977483,1775668806.653623,599617627435674850,107
3.985175,1775668806.653623,599617627435674850,125
3.992867,1775668806.653623,599617627435674850,143
4.000560,1775668806.653623,599617627435674850,152
4.008252,1775668806.653623,599617627435674850,159
4.015944,1775668806.653623,599617627435674850,164
4.023636,1775668806.653623,599617627435674850,155
4.031329,1775668806.653623,599617627435674850,134
4.039021,1775668806.653623,599617627435674850,120
4.046713,1775668806.653623,599617627435674850,95
4.054406,1775668806.653623,599617627435674850,47
4.062098,1775668806.653623,599617627435674850,6
4.069790,1775668806.653623,599617627435674850,-15
4.077483,1775668806.653623,599617627435674850,-41
4.085175,1775668806.653623,599617627435674850,-73
4.092867,1775668806.653623,599617627435674850,-84
4.100559,1775668806.653623,599617627435674850,-89
4.108252,1775668806.653623,599617627435674850,-93
4.115944,1775668806.653623,599617627435674850,-86
4.123636,1775668806.653623,599617627435674850,-75
4.131329,1775668806.653623,599617627435674850,-75
4.139021,1775668806.653623,599617627435674850,-79
4.146713,1775668806.653623,599617627435674850,-75
4.154406,1775668806.653623,599617627435674850,-70
4.162098,1775668806.653623,599617627435674850,-73
4.169790,1775668806.653623,599617627435674850,-70
4.177483,1775668806.653623,599617627435674850,-59
4.185175,1775668806.653623,599617627435674850,-54
4.192867,1775668806.653623,599617627435674850,-63
4.200559,1775668806.653623,599617627435674850,-63
4.208252,1775668806.653623,599617627435674850,-59
4.215944,1775668806.653623,599617627435674850,-63
4.223636,1775668806.653623,599617627435674850,-57
4.231329,1775668806.653623,599617627435674850,-47
4.239021,1775668806.653623,599617627435674850,-50
4.246713,1775668806.653623,599617627435674850,-59
4.254406,1775668806.653623,599617627435674850,-63
4.262098,1775668806.653623,599617627435674850,-63
4.269790,1775668806.653623,599617627435674850,-63
4.277483,1775668806.653623,599617627435674850,-59
4.285175,1775668806.653623,599617627435674850,-63
4.292867,1775668806.653623,599617627435674850,-68
4.300560,1775668806.653623,599617627435674850,-54
4.308252,1775668806.653623,599617627435674850,-43
4.315944,1775668806.653623,599617627435674850,-47
4.323636,1775668806.653623,599617627435674850,-57
4.331329,1775668806.653623,599617627435674850,-61
4.339021,1775668806.653623,599617627435674850,-54
4.346713,1775668806.653623,599617627435674850,-50
4.354406,1775668806.653623,599617627435674850,-50
4.362098,1775668806.653623,599617627435674850,-25
4.369790,1775668806.653623,599617627435674850,-2
4.377483,1775668806.653623,599617627435674850,-9
4.385175,1775668806.653623,599617627435674850,-2
4.392867,1775668806.653623,599617627435674850,11
4.400560,1775668806.653623,599617627435674850,-9
4.408252,1775668806.653623,599617627435674850,-43
4.415944,1775668806.653623,599617627435674850,-61
4.423636,1775668806.653623,599617627435674850,-73
4.431329,1775668806.653623,599617627435674850,-79
4.439021,1775668806.653623,599617627435674850,-77
4.446713,1775668806.653623,599617627435674850,-73
4.454406,1775668806.653623,599617627435674850,-68
4.462098,1775668806.653623,599617627435674850,-63
4.469790,1775668806.653623,599617627435674850,-68
4.477483,1775668806.653623,599617627435674850,-73
4.485175,1775668806.653623,599617627435674850,-70
4.492936,1775668807.236939,599617627997282344,-66
4.500628,1775668807.236939,599617627997282344,-57
4.508321,1775668807.236939,599617627997282344,-47
4.516013,1775668807.236939,599617627997282344,-45
4.523705,1775668807.236939,599617627997282344,-22
4.531398,1775668807.236939,599617627997282344,75
4.539090,1775668807.236939,599617627997282344,276
4.546782,1775668807.236939,599617627997282344,385
4.554475,1775668807.236939,599617627997282344,118
4.562167,1775668807.236939,599617627997282344,-346
4.569859,1775668807.236939,599617627997282344,-490
4.577551,1775668807.236939,599617627997282344,-269
4.585244,1775668807.236939,599617627997282344,-91
4.592936,1775668807.236939,599617627997282344,-77
4.600628,1775668807.236939,599617627997282344,-77
4.608321,1775668807.236939,599617627997282344,-57
4.616013,1775668807.236939,599617627997282344,-57
4.623705,1775668807.236939,599617627997282344,-54
4.631398,1775668807.236939,599617627997282344,-36
4.639090,1775668807.236939,599617627997282344,-31
4.646782,1775668807.236939,599617627997282344,-41
4.654475,1775668807.236939,599617627997282344,-47
4.662167,1775668807.236939,599617627997282344,-38
4.669859,1775668807.236939,599617627997282344,-27
4.677552,1775668807.236939,599617627997282344,-15
4.685244,1775668807.236939,599617627997282344,-2
4.692936,1775668807.236939,599617627997282344,0
4.700628,1775668807.236939,599617627997282344,-9
4.708321,1775668807.236939,599617627997282344,-11
4.716013,1775668807.236939,599617627997282344,-2
4.723705,1775668807.236939,599617627997282344,18
4.731398,1775668807.236939,599617627997282344,38
4.739090,1775668807.236939,599617627997282344,43
4.746782,1775668807.236939,599617627997282344,41
4.754475,1775668807.236939,599617627997282344,52
4.762167,1775668807.236939,599617627997282344,68
4.769859,1775668807.236939,599617627997282344,91
4.777552,1775668807.236939,599617627997282344,109
4.785244,1775668807.236939,599617627997282344,123
4.792936,1775668807.236939,599617627997282344,132
4.800628,1775668807.236939,599617627997282344,132
4.808321,1775668807.236939,599617627997282344,125
4.816013,1775668807.236939,599617627997282344,116
4.823705,1775668807.236939,599617627997282344,102
4.831398,1775668807.236939,599617627997282344,82
4.839090,1775668807.236939,599617627997282344,59
4.846782,1775668807.236939,599617627997282344,22
4.854475,1775668807.236939,599617627997282344,-22
4.862167,1775668807.236939,599617627997282344,-61
4.869859,1775668807.236939,599617627997282344,-86
4.877551,1775668807.236939,599617627997282344,-98
4.885244,1775668807.236939,599617627997282344,-100
4.892936,1775668807.236939,599617627997282344,-100
4.900628,1775668807.236939,599617627997282344,-100
4.908321,1775668807.236939,599617627997282344,-98
4.916013,1775668807.236939,599617627997282344,-102
4.923705,1775668807.236939,599617627997282344,-105
4.931398,1775668807.236939,599617627997282344,-93
4.939090,1775668807.236939,599617627997282344,-84
4.946782,1775668807.236939,599617627997282344,-89
4.954475,1775668807.236939,599617627997282344,-86
4.962167,1775668807.236939,599617627997282344,-79
4.969859,1775668807.236939,599617627997282344,-73
4.977551,1775668807.236939,599617627997282344,-73
4.985244,1775668807.236939,599617627997282344,-77
4.992936,1775668807.236939,599617627997282344,-75
5.000628,1775668807.236939,599617627997282344,-66
5.008321,1775668807.236939,599617627997282344,-68
5.016013,1775668807.236939,599617627997282344,-73
5.023705,1775668807.236939,599617627997282344,-70
5.031398,1775668807.236939,599617627997282344,-70
5.039090,1775668807.236939,599617627997282344,-63
5.046782,1775668807.236939,599617627997282344,-54
5.054564,1775668807.732581,599617628558910184,-47
5.062256,1775668807.732581,599617628558910184,-52
5.069949,1775668807.732581,599617628558910184,-73
5.077641,1775668807.732581,599617628558910184,-89
5.085333,1775668807.732581,599617628558910184,-66
5.093026,1775668807.732581,599617628558910184,-47
5.100718,1775668807.732581,599617628558910184,-52
5.108410,1775668807.732581,599617628558910184,-41
5.116103,1775668807.732581,599617628558910184,-18
5.123795,1775668807.732581,599617628558910184,-9
5.131487,1775668807.732581,599617628558910184,-2
5.139179,1775668807.732581,599617628558910184,6
5.146872,1775668807.732581,599617628558910184,-13
5.154564,1775668807.732581,599617628558910184,-50
5.162256,1775668807.732581,599617628558910184,-63
5.169949,1775668807.732581,599617628558910184,-66
5.177641,1775668807.732581,599617628558910184,-82
5.185333,1775668807.732581,599617628558910184,-91
5.193026,1775668807.732581,599617628558910184,-86
5.200718,1775668807.732581,599617628558910184,-82
5.208410,1775668807.732581,599617628558910184,-84
5.216103,1775668807.732581,599617628558910184,-86
5.223795,1775668807.732581,599617628558910184,-84
5.231487,1775668807.732581,599617628558910184,-82
5.239179,1775668807.732581,599617628558910184,-79
5.246872,1775668807.732581,599617628558910184,-73
5.254564,1775668807.732581,599617628558910184,-63
5.262256,1775668807.732581,599617628558910184,-59
5.269949,1775668807.732581,599617628558910184,-52
5.277641,1775668807.732581,599617628558910184,-22
5.285333,1775668807.732581,599617628558910184,73
5.293026,1775668807.732581,599617628558910184,257
5.300718,1775668807.732581,599617628558910184,365
5.308410,1775668807.732581,599617628558910184,127
5.316103,1775668807.732581,599617628558910184,-324
5.323795,1775668807.732581,599617628558910184,-495
5.331487,1775668807.732581,599617628558910184,-278
5.339180,1775668807.732581,599617628558910184,-61
5.346872,1775668807.732581,599617628558910184,-36
5.354564,1775668807.732581,599617628558910184,-50
5.362256,1775668807.732581,599617628558910184,-25
5.369949,1775668807.732581,599617628558910184,-15
5.377641,1775668807.732581,599617628558910184,-13
5.385333,1775668807.732581,599617628558910184,0
5.393026,1775668807.732581,599617628558910184,2
5.400718,1775668807.732581,599617628558910184,0
5.408410,1775668807.732581,599617628558910184,4
5.416103,1775668807.732581,599617628558910184,6
5.423795,1775668807.732581,599617628558910184,15
5.431487,1775668807.732581,599617628558910184,45
5.439179,1775668807.732581,599617628558910184,50
5.446872,1775668807.732581,599617628558910184,22
5.454564,1775668807.732581,599617628558910184,27
5.462256,1775668807.732581,599617628558910184,50
5.469949,1775668807.732581,599617628558910184,54
5.477641,1775668807.732581,599617628558910184,70
5.485333,1775668807.732581,599617628558910184,95
5.493026,1775668807.732581,599617628558910184,95
5.500718,1775668807.732581,599617628558910184,82
5.508410,1775668807.732581,599617628558910184,95
5.516103,1775668807.732581,599617628558910184,125
5.523795,1775668807.732581,599617628558910184,127
5.531487,1775668807.732581,599617628558910184,130
5.539179,1775668807.732581,599617628558910184,152
5.546872,1775668807.732581,599617628558910184,171
5.554564,1775668807.732581,599617628558910184,180
5.562256,1775668807.732581,599617628558910184,175
5.569949,1775668807.732581,599617628558910184,136
5.577641,1775668807.732581,599617628558910184,102
5.585333,1775668807.732581,599617628558910184,118
5.593026,1775668807.732581,599617628558910184,141
5.600718,1775668807.732581,599617628558910184,36
5.608410,1775668807.732581,599617628558910184,-105
5.616166,1775668808.273584,599617629120512594,-73
5.623859,1775668808.273584,599617629120512594,2
5.631551,1775668808.273584,599617629120512594,-52
5.639243,1775668808.273584,599617629120512594,-100
5.646936,1775668808.273584,599617629120512594,-79
5.654628,1775668808.273584,599617629120512594,-89
5.662320,1775668808.273584,599617629120512594,-93
5.670013,1775668808.273584,599617629120512594,-63
5.677705,1775668808.273584,599617629120512594,-61
5.685397,1775668808.273584,599617629120512594,-77
5.693089,1775668808.273584,599617629120512594,-68
5.700782,1775668808.273584,599617629120512594,-59
5.708474,1775668808.273584,599617629120512594,-66
5.716166,1775668808.273584,599617629120512594,-63
5.723859,1775668808.273584,599617629120512594,-57
5.731551,1775668808.273584,599617629120512594,-57
5.739243,1775668808.273584,599617629120512594,-59
5.746936,1775668808.273584,599617629120512594,-54
5.754628,1775668808.273584,599617629120512594,-47
5.762320,1775668808.273584,599617629120512594,-50
5.770013,1775668808.273584,599617629120512594,-54
5.777705,1775668808.273584,599617629120512594,-54
5.785397,1775668808.273584,599617629120512594,-52
5.793090,1775668808.273584,599617629120512594,-52
5.800782,1775668808.273584,599617629120512594,-52
5.808474,1775668808.273584,599617629120512594,-54
5.816166,1775668808.273584,599617629120512594,-50
5.823859,1775668808.273584,599617629120512594,-47
5.831551,1775668808.273584,599617629120512594,-54
5.839243,1775668808.273584,599617629120512594,-63
5.846936,1775668808.273584,599617629120512594,-61
5.854628,1775668808.273584,599617629120512594,-36
5.862320,1775668808.273584,599617629120512594,-4
5.870013,1775668808.273584,599617629120512594,4
5.877705,1775668808.273584,599617629120512594,-9
5.885397,1775668808.273584,599617629120512594,-9
5.893090,1775668808.273584,599617629120512594,-9
5.900782,1775668808.273584,599617629120512594,-29
5.908474,1775668808.273584,599617629120512594,-43
5.916166,1775668808.273584,599617629120512594,-47
5.923859,1775668808.273584,599617629120512594,-54
5.931551,1775668808.273584,599617629120512594,-57
5.939243,1775668808.273584,599617629120512594,-54
5.946936,1775668808.273584,599617629120512594,-52
5.954628,1775668808.273584,599617629120512594,-52
5.962320,1775668808.273584,599617629120512594,-59
5.970013,1775668808.273584,599617629120512594,-57
5.977705,1775668808.273584,599617629120512594,-47
5.985397,1775668808.273584,599617629120512594,-45
5.993090,1775668808.273584,599617629120512594,-43
6.000782,1775668808.273584,599617629120512594,-38
6.008474,1775668808.273584,599617629120512594,-38
6.016166,1775668808.273584,599617629120512594,-27
6.023859,1775668808.273584,599617629120512594,52
6.031551,1775668808.273584,599617629120512594,237
6.039243,1775668808.273584,599617629120512594,383
6.046936,1775668808.273584,599617629120512594,191
6.054628,1775668808.273584,599617629120512594,-283
6.062320,1775668808.273584,599617629120512594,-515
6.070013,1775668808.273584,599617629120512594,-337
6.077705,1775668808.273584,599617629120512594,-107
6.085397,1775668808.273584,599617629120512594,-36
6.093089,1775668808.273584,599617629120512594,-31
6.100782,1775668808.273584,599617629120512594,-22
6.108474,1775668808.273584,599617629120512594,-20
6.116166,1775668808.273584,599617629120512594,-22
6.123859,1775668808.273584,599617629120512594,-18
6.131551,1775668808.273584,599617629120512594,-13
6.139243,1775668808.273584,599617629120512594,-11
6.146936,1775668808.273584,599617629120512594,-4
6.154628,1775668808.273584,599617629120512594,-6
6.162320,1775668808.273584,599617629120512594,-9
6.170013,1775668808.273584,599617629120512594,-4
6.177789,1775668808.813401,599617629682135348,-4
6.185481,1775668808.813401,599617629682135348,-4
6.193174,1775668808.813401,599617629682135348,6
6.200866,1775668808.813401,599617629682135348,15
6.208558,1775668808.813401,599617629682135348,13
6.216251,1775668808.813401,599617629682135348,18
6.223943,1775668808.813401,599617629682135348,43
6.231635,1775668808.813401,599617629682135348,57
6.239328,1775668808.813401,599617629682135348,54
6.247020,1775668808.813401,599617629682135348,68
6.254712,1775668808.813401,599617629682135348,89
6.262405,1775668808.813401,599617629682135348,95
6.270097,1775668808.813401,599617629682135348,102
6.277789,1775668808.813401,599617629682135348,118
6.285481,1775668808.813401,599617629682135348,134
6.293174,1775668808.813401,599617629682135348,136
6.300866,1775668808.813401,599617629682135348,136
6.308558,1775668808.813401,599617629682135348,132
6.316251,1775668808.813401,599617629682135348,111
6.323943,1775668808.813401,599617629682135348,79
6.331635,1775668808.813401,599617629682135348,52
6.339328,1775668808.813401,599617629682135348,18
6.347020,1775668808.813401,599617629682135348,-18
6.354712,1775668808.813401,599617629682135348,-54
6.362405,1775668808.813401,599617629682135348,-86
6.370097,1775668808.813401,599617629682135348,-93
6.377789,1775668808.813401,599617629682135348,-93
6.385481,1775668808.813401,599617629682135348,-102
6.393174,1775668808.813401,599617629682135348,-100
6.400866,1775668808.813401,599617629682135348,-91
6.408558,1775668808.813401,599617629682135348,-86
6.416251,1775668808.813401,599617629682135348,-86
6.423943,1775668808.813401,599617629682135348,-91
6.431635,1775668808.813401,599617629682135348,-89
6.439328,1775668808.813401,599617629682135348,-75
6.447020,1775668808.813401,599617629682135348,-73
6.454712,1775668808.813401,599617629682135348,-79
6.462405,1775668808.813401,599617629682135348,-75
6.470097,1775668808.813401,599617629682135348,-75
6.477789,1775668808.813401,599617629682135348,-82
6.485482,1775668808.813401,599617629682135348,-77
6.493174,1775668808.813401,599617629682135348,-63
6.500866,1775668808.813401,599617629682135348,-57
6.508558,1775668808.813401,599617629682135348,-61
6.516251,1775668808.813401,599617629682135348,-73
6.523943,1775668808.813401,599617629682135348,-75
6.531635,1775668808.813401,599617629682135348,-61
6.539328,1775668808.813401,599617629682135348,-50
6.547020,1775668808.813401,599617629682135348,-63
6.554712,1775668808.813401,599617629682135348,-73
6.562405,1775668808.813401,599617629682135348,-54
6.570097,1775668808.813401,599617629682135348,-41
6.577789,1775668808.813401,599617629682135348,-47
6.585482,1775668808.813401,599617629682135348,-43
6.593174,1775668808.813401,599617629682135348,-25
6.600866,1775668808.813401,599617629682135348,-34
6.608558,1775668808.813401,599617629682135348,-63
6.616251,1775668808.813401,599617629682135348,-82
6.623943,1775668808.813401,599617629682135348,-82
6.631635,1775668808.813401,599617629682135348,-95
6.639328,1775668808.813401,599617629682135348,-105
6.647020,1775668808.813401,599617629682135348,-91
6.654712,1775668808.813401,599617629682135348,-89
6.662405,1775668808.813401,599617629682135348,-93
6.670097,1775668808.813401,599617629682135348,-89
6.677789,1775668808.813401,599617629682135348,-86
6.685481,1775668808.813401,599617629682135348,-79
6.693174,1775668808.813401,599617629682135348,-70
6.700866,1775668808.813401,599617629682135348,-66
6.708558,1775668808.813401,599617629682135348,-59
6.716251,1775668808.813401,599617629682135348,-27
6.723943,1775668808.813401,599617629682135348,66
6.731635,1775668808.813401,599617629682135348,262
6.739417,1775668809.443533,599617630243763188,435
6.747109,1775668809.443533,599617630243763188,246
6.754802,1775668809.443533,599617630243763188,-315
6.762494,1775668809.443533,599617630243763188,-630
6.770186,1775668809.443533,599617630243763188,-449
6.777879,1775668809.443533,599617630243763188,-191
6.785571,1775668809.443533,599617630243763188,-86
6.793263,1775668809.443533,599617630243763188,-61
6.800956,1775668809.443533,599617630243763188,-57
6.808648,1775668809.443533,599617630243763188,-45
6.816340,1775668809.443533,599617630243763188,-31
6.824032,1775668809.443533,599617630243763188,-20
6.831725,1775668809.443533,599617630243763188,-20
6.839417,1775668809.443533,599617630243763188,-36
6.847109,1775668809.443533,599617630243763188,-36
6.854802,1775668809.443533,599617630243763188,-15
6.862494,1775668809.443533,599617630243763188,-2
6.870186,1775668809.443533,599617630243763188,-4
6.877879,1775668809.443533,599617630243763188,-11
6.885571,1775668809.443533,599617630243763188,-6
6.893263,1775668809.443533,599617630243763188,4
6.900956,1775668809.443533,599617630243763188,9
6.908648,1775668809.443533,599617630243763188,9
6.916340,1775668809.443533,599617630243763188,6
6.924032,1775668809.443533,599617630243763188,15
6.931725,1775668809.443533,599617630243763188,34
6.939417,1775668809.443533,599617630243763188,45
6.947109,1775668809.443533,599617630243763188,45
6.954802,1775668809.443533,599617630243763188,54
6.962494,1775668809.443533,599617630243763188,79
6.970186,1775668809.443533,599617630243763188,89
6.977879,1775668809.443533,599617630243763188,73
6.985571,1775668809.443533,599617630243763188,70
6.993263,1775668809.443533,599617630243763188,79
7.000955,1775668809.443533,599617630243763188,73
7.008648,1775668809.443533,599617630243763188,63
7.016340,1775668809.443533,599617630243763188,52
7.024032,1775668809.443533,599617630243763188,25
7.031725,1775668809.443533,599617630243763188,-13
7.039417,1775668809.443533,599617630243763188,-45
7.047109,1775668809.443533,599617630243763188,-63
7.054802,1775668809.443533,599617630243763188,-91
7.062494,1775668809.443533,599617630243763188,-120
7.070186,1775668809.443533,599617630243763188,-132
7.077879,1775668809.443533,599617630243763188,-132
7.085571,1775668809.443533,599617630243763188,-136
7.093263,1775668809.443533,599617630243763188,-134
7.100955,1775668809.443533,599617630243763188,-132
7.108648,1775668809.443533,599617630243763188,-134
7.116340,1775668809.443533,599617630243763188,-134
7.124032,1775668809.443533,599617630243763188,-139
7.131725,1775668809.443533,599617630243763188,-136
7.139417,1775668809.443533,599617630243763188,-125
7.147109,1775668809.443533,599617630243763188,-118
7.154802,1775668809.443533,599617630243763188,-111
7.162494,1775668809.443533,599617630243763188,-105
7.170186,1775668809.443533,599617630243763188,-114
7.177879,1775668809.443533,599617630243763188,-114
7.185571,1775668809.443533,599617630243763188,-98
7.193263,1775668809.443533,599617630243763188,-91
7.200956,1775668809.443533,599617630243763188,-102
7.208648,1775668809.443533,599617630243763188,-107
7.216340,1775668809.443533,599617630243763188,-100
7.224032,1775668809.443533,599617630243763188,-93
7.231725,1775668809.443533,599617630243763188,-91
7.239417,1775668809.443533,599617630243763188,-95
7.247109,1775668809.443533,599617630243763188,-100
7.254802,1775668809.443533,599617630243763188,-98
7.262494,1775668809.443533,599617630243763188,-89
7.270186,1775668809.443533,599617630243763188,-84
7.277879,1775668809.443533,599617630243763188,-82
7.285571,1775668809.443533,599617630243763188,-70
7.293263,1775668809.443533,599617630243763188,-52
7.301014,1775668809.983736,599617630805360510,-63
7.308707,1775668809.983736,599617630805360510,-100
7.316399,1775668809.983736,599617630805360510,-116
7.324091,1775668809.983736,599617630805360510,-109
7.331784,1775668809.983736,599617630805360510,-102
7.339476,1775668809.983736,599617630805360510,-100
7.347168,1775668809.983736,599617630805360510,-107
7.354861,1775668809.983736,599617630805360510,-116
7.362553,1775668809.983736,599617630805360510,-109
7.370245,1775668809.983736,599617630805360510,-93
7.377937,1775668809.983736,599617630805360510,-89
7.385630,1775668809.983736,599617630805360510,-95
7.393322,1775668809.983736,599617630805360510,-93
7.401014,1775668809.983736,599617630805360510,-77
7.408707,1775668809.983736,599617630805360510,-70
7.416399,1775668809.983736,599617630805360510,-27
7.424091,1775668809.983736,599617630805360510,143
7.431784,1775668809.983736,599617630805360510,426
7.439476,1775668809.983736,599617630805360510,531
7.447168,1775668809.983736,599617630805360510,130
7.454861,1775668809.983736,599617630805360510,-477
7.462553,1775668809.983736,599617630805360510,-582
7.470245,1775668809.983736,599617630805360510,-235
7.477937,1775668809.983736,599617630805360510,-54
7.485630,1775668809.983736,599617630805360510,-86
7.493322,1775668809.983736,599617630805360510,-66
7.501014,1775668809.983736,599617630805360510,-36
7.508707,1775668809.983736,599617630805360510,-52
7.516399,1775668809.983736,599617630805360510,-50
7.524091,1775668809.983736,599617630805360510,-27
7.531784,1775668809.983736,599617630805360510,-25
7.539476,1775668809.983736,599617630805360510,-25
7.547168,1775668809.983736,599617630805360510,-15
7.554861,1775668809.983736,599617630805360510,-6
7.562553,1775668809.983736,599617630805360510,-4
7.570245,1775668809.983736,599617630805360510,-11
7.577937,1775668809.983736,599617630805360510,-13
7.585630,1775668809.983736,599617630805360510,2
7.593322,1775668809.983736,599617630805360510,15
7.601014,1775668809.983736,599617630805360510,22
7.608707,1775668809.983736,599617630805360510,38
7.616399,1775668809.983736,599617630805360510,52
7.624091,1775668809.983736,599617630805360510,59
7.631784,1775668809.983736,599617630805360510,66
7.639476,1775668809.983736,599617630805360510,77
7.647168,1775668809.983736,599617630805360510,95
7.654860,1775668809.983736,599617630805360510,107
7.662553,1775668809.983736,599617630805360510,116
7.670245,1775668809.983736,599617630805360510,130
7.677938,1775668809.983736,599617630805360510,143
7.685630,1775668809.983736,599617630805360510,134
7.693322,1775668809.983736,599617630805360510,120
7.701014,1775668809.983736,599617630805360510,123
7.708707,1775668809.983736,599617630805360510,120
7.716399,1775668809.983736,599617630805360510,102
7.724091,1775668809.983736,599617630805360510,77
7.731784,1775668809.983736,599617630805360510,36
7.739476,1775668809.983736,599617630805360510,-6
7.747168,1775668809.983736,599617630805360510,-34
7.754861,1775668809.983736,599617630805360510,-54
7.762553,1775668809.983736,599617630805360510,-79
7.770245,1775668809.983736,599617630805360510,-86
7.777937,1775668809.983736,599617630805360510,-86
7.785630,1775668809.983736,599617630805360510,-91
7.793322,1775668809.983736,599617630805360510,-93
7.801014,1775668809.983736,599617630805360510,-95
7.808707,1775668809.983736,599617630805360510,-105
7.816399,1775668809.983736,599617630805360510,-105
7.824091,1775668809.983736,599617630805360510,-89
7.831784,1775668809.983736,599617630805360510,-82
7.839476,1775668809.983736,599617630805360510,-91
7.847168,1775668809.983736,599617630805360510,-91
7.854861,1775668809.983736,599617630805360510,-82
7.862642,1775668810.566550,599617631366988350,-82
7.870334,1775668810.566550,599617631366988350,-79
7.878027,1775668810.566550,599617631366988350,-73
7.885719,1775668810.566550,599617631366988350,-70
7.893411,1775668810.566550,599617631366988350,-66
7.901104,1775668810.566550,599617631366988350,-59
7.908796,1775668810.566550,599617631366988350,-63
7.916488,1775668810.566550,599617631366988350,-68
7.924181,1775668810.566550,599617631366988350,-57
7.931873,1775668810.566550,599617631366988350,-47
7.939565,1775668810.566550,599617631366988350,-54
7.947258,1775668810.566550,599617631366988350,-68
7.954950,1775668810.566550,599617631366988350,-63
7.962642,1775668810.566550,599617631366988350,-41
7.970334,1775668810.566550,599617631366988350,-31
7.978027,1775668810.566550,599617631366988350,-36
7.985719,1775668810.566550,599617631366988350,-31
7.993411,1775668810.566550,599617631366988350,-18
8.001104,1775668810.566550,599617631366988350,-22
8.008796,1775668810.566550,599617631366988350,-50
8.016488,1775668810.566550,599617631366988350,-68
8.024181,1775668810.566550,599617631366988350,-68
8.031873,1775668810.566550,599617631366988350,-73
8.039565,1775668810.566550,599617631366988350,-77
8.047258,1775668810.566550,599617631366988350,-75
8.054950,1775668810.566550,599617631366988350,-70
8.062642,1775668810.566550,599617631366988350,-68
8.070334,1775668810.566550,599617631366988350,-61
8.078027,1775668810.566550,599617631366988350,-50
8.085719,1775668810.566550,599617631366988350,-47
8.093411,1775668810.566550,599617631366988350,-50
8.101104,1775668810.566550,599617631366988350,-45
8.108796,1775668810.566550,599617631366988350,-41
8.116488,1775668810.566550,599617631366988350,-11
8.124181,1775668810.566550,599617631366988350,123
8.131873,1775668810.566550,599617631366988350,360
8.139565,1775668810.566550,599617631366988350,447
8.147258,1775668810.566550,599617631366988350,109
8.154950,1775668810.566550,599617631366988350,-381
8.162642,1775668810.566550,599617631366988350,-463
8.170334,1775668810.566550,599617631366988350,-187
8.178027,1775668810.566550,599617631366988350,-29
8.185719,1775668810.566550,599617631366988350,-45
8.193411,1775668810.566550,599617631366988350,-41
8.201104,1775668810.566550,599617631366988350,-18
8.208796,1775668810.566550,599617631366988350,-25
8.216488,1775668810.566550,599617631366988350,-22
8.224181,1775668810.566550,599617631366988350,-11
8.231873,1775668810.566550,599617631366988350,-15
8.239565,1775668810.566550,599617631366988350,-20
8.247257,1775668810.566550,599617631366988350,-18
8.254950,1775668810.566550,599617631366988350,-11
8.262642,1775668810.566550,599617631366988350,-6
8.270334,1775668810.566550,599617631366988350,-6
8.278027,1775668810.566550,599617631366988350,4
8.285719,1775668810.566550,599617631366988350,11
8.293411,1775668810.566550,599617631366988350,4
8.301104,1775668810.566550,599617631366988350,15
8.308796,1775668810.566550,599617631366988350,45
8.316488,1775668810.566550,599617631366988350,54
8.324181,1775668810.566550,599617631366988350,45
8.331873,1775668810.566550,599617631366988350,52
8.339565,1775668810.566550,599617631366988350,70
8.347257,1775668810.566550,599617631366988350,89
8.354950,1775668810.566550,599617631366988350,111
8.362642,1775668810.566550,599617631366988350,123
8.370334,1775668810.566550,599617631366988350,123
8.378027,1775668810.566550,599617631366988350,127
8.385719,1775668810.566550,599617631366988350,125
8.393411,1775668810.566550,599617631366988350,111
8.401104,1775668810.566550,599617631366988350,105
8.408796,1775668810.566550,599617631366988350,107
8.416488,1775668810.566550,599617631366988350,98
8.424270,1775668811.153539,599617631928616190,73
8.431962,1775668811.153539,599617631928616190,34
8.439655,1775668811.153539,599617631928616190,-2
8.447347,1775668811.153539,599617631928616190,-34
8.455039,1775668811.153539,599617631928616190,-59
8.462731,1775668811.153539,599617631928616190,-77
8.470424,1775668811.153539,599617631928616190,-86
8.478116,1775668811.153539,599617631928616190,-86
8.485808,1775668811.153539,599617631928616190,-82
8.493501,1775668811.153539,599617631928616190,-84
8.501193,1775668811.153539,599617631928616190,-86
8.508885,1775668811.153539,599617631928616190,-79
8.516578,1775668811.153539,599617631928616190,-75
8.524270,1775668811.153539,599617631928616190,-70
8.531962,1775668811.153539,599617631928616190,-70
8.539655,1775668811.153539,599617631928616190,-70
8.547347,1775668811.153539,599617631928616190,-59
8.555039,1775668811.153539,599617631928616190,-50
8.562732,1775668811.153539,599617631928616190,-59
8.570424,1775668811.153539,599617631928616190,-66
8.578116,1775668811.153539,599617631928616190,-59
8.585809,1775668811.153539,599617631928616190,-47
8.593501,1775668811.153539,599617631928616190,-36
8.601193,1775668811.153539,599617631928616190,-34
8.608885,1775668811.153539,599617631928616190,-41
8.616578,1775668811.153539,599617631928616190,-50
8.624270,1775668811.153539,599617631928616190,-57
8.631962,1775668811.153539,599617631928616190,-63
8.639655,1775668811.153539,599617631928616190,-54
8.647347,1775668811.153539,599617631928616190,-15
8.655039,1775668811.153539,599617631928616190,15
8.662732,1775668811.153539,599617631928616190,4
8.670424,1775668811.153539,599617631928616190,-11
8.678116,1775668811.153539,599617631928616190,-11
8.685808,1775668811.153539,599617631928616190,-22
8.693501,1775668811.153539,599617631928616190,-47
8.701193,1775668811.153539,599617631928616190,-57
8.708885,1775668811.153539,599617631928616190,-54
8.716578,1775668811.153539,599617631928616190,-66
8.724270,1775668811.153539,599617631928616190,-68
8.731962,1775668811.153539,599617631928616190,-45
8.739655,1775668811.153539,599617631928616190,-31
8.747347,1775668811.153539,599617631928616190,-61
8.755039,1775668811.153539,599617631928616190,-82
8.762732,1775668811.153539,599617631928616190,-57
8.770424,1775668811.153539,599617631928616190,-43
8.778116,1775668811.153539,599617631928616190,-52
8.785808,1775668811.153539,599617631928616190,-45
8.793501,1775668811.153539,599617631928616190,-15
8.801193,1775668811.153539,599617631928616190,41
8.808885,1775668811.153539,599617631928616190,166
8.816578,1775668811.153539,599617631928616190,346
8.824270,1775668811.153539,599617631928616190,308
8.831962,1775668811.153539,599617631928616190,-102
8.839655,1775668811.153539,599617631928616190,-467
8.847347,1775668811.153539,599617631928616190,-401
8.855039,1775668811.153539,599617631928616190,-134
8.862732,1775668811.153539,599617631928616190,-9
8.870424,1775668811.153539,599617631928616190,0
8.878116,1775668811.153539,599617631928616190,15
8.885808,1775668811.153539,599617631928616190,27
8.893501,1775668811.153539,599617631928616190,15
8.901193,1775668811.153539,599617631928616190,15
8.908885,1775668811.153539,599617631928616190,27
8.916578,1775668811.153539,599617631928616190,25
8.924270,1775668811.153539,599617631928616190,22
8.931962,1775668811.153539,599617631928616190,27
8.939655,1775668811.153539,599617631928616190,34
8.947347,1775668811.153539,599617631928616190,41
8.955039,1775668811.153539,599617631928616190,34
8.962731,1775668811.153539,599617631928616190,27
8.970424,1775668811.153539,599617631928616190,34
8.978116,1775668811.153539,599617631928616190,54
8.985898,1775668811.646855,599617632490244030,61
8.993590,1775668811.646855,599617632490244030,57
9.001282,1775668811.646855,599617632490244030,63
9.008975,1775668811.646855,599617632490244030,79
9.016667,1775668811.646855,599617632490244030,86
9.024359,1775668811.646855,599617632490244030,95
9.032052,1775668811.646855,599617632490244030,109
9.039744,1775668811.646855,599617632490244030,125
9.047436,1775668811.646855,599617632490244030,141
9.055129,1775668811.646855,599617632490244030,150
9.062821,1775668811.646855,599617632490244030,157
9.070513,1775668811.646855,599617632490244030,164
9.078205,1775668811.646855,599617632490244030,162
9.085898,1775668811.646855,599617632490244030,159
9.093590,1775668811.646855,599617632490244030,152
9.101282,1775668811.646855,599617632490244030,132
9.108975,1775668811.646855,599617632490244030,100
9.116667,1775668811.646855,599617632490244030,70
9.124359,1775668811.646855,599617632490244030,43
9.132052,1775668811.646855,599617632490244030,11
9.139744,1775668811.646855,599617632490244030,-11
9.147436,1775668811.646855,599617632490244030,4
9.155128,1775668811.646855,599617632490244030,22
9.162821,1775668811.646855,599617632490244030,-27
9.170513,1775668811.646855,599617632490244030,-82
9.178205,1775668811.646855,599617632490244030,-68
9.185898,1775668811.646855,599617632490244030,-38
9.193590,1775668811.646855,599617632490244030,-36
9.201282,1775668811.646855,599617632490244030,-43
9.208975,1775668811.646855,599617632490244030,-31
9.216667,1775668811.646855,599617632490244030,-11
9.224359,1775668811.646855,599617632490244030,-29
9.232052,1775668811.646855,599617632490244030,-73
9.239744,1775668811.646855,599617632490244030,-61
9.247436,1775668811.646855,599617632490244030,-11
9.255129,1775668811.646855,599617632490244030,4
9.262821,1775668811.646855,599617632490244030,-25
9.270513,1775668811.646855,599617632490244030,-75
9.278205,1775668811.646855,599617632490244030,-91
9.285898,1775668811.646855,599617632490244030,-54
9.293590,1775668811.646855,599617632490244030,-20
9.301282,1775668811.646855,599617632490244030,4
9.308975,1775668811.646855,599617632490244030,27
9.316667,1775668811.646855,599617632490244030,13
9.324359,1775668811.646855,599617632490244030,-27
9.332052,1775668811.646855,599617632490244030,-45
9.339744,1775668811.646855,599617632490244030,-50
9.347436,1775668811.646855,599617632490244030,-38
9.355129,1775668811.646855,599617632490244030,-13
9.362821,1775668811.646855,599617632490244030,-11
9.370513,1775668811.646855,599617632490244030,-36
9.378205,1775668811.646855,599617632490244030,-54
9.385898,1775668811.646855,599617632490244030,-57
9.393590,1775668811.646855,599617632490244030,-47
9.401282,1775668811.646855,599617632490244030,-41
9.408975,1775668811.646855,599617632490244030,-38
9.416667,1775668811.646855,599617632490244030,-45
9.424359,1775668811.646855,599617632490244030,-52
9.432052,1775668811.646855,599617632490244030,-50
9.439744,1775668811.646855,599617632490244030,-45
9.447436,1775668811.646855,599617632490244030,-11
9.455129,1775668811.646855,599617632490244030,20
9.462821,1775668811.646855,599617632490244030,11
9.470513,1775668811.646855,599617632490244030,34
9.478205,1775668811.646855,599617632490244030,180
9.485898,1775668811.646855,599617632490244030,358
9.493590,1775668811.646855,599617632490244030,317
9.501282,1775668811.646855,599617632490244030,-73
9.508975,1775668811.646855,599617632490244030,-458
9.516667,1775668811.646855,599617632490244030,-413
9.524359,1775668811.646855,599617632490244030,-123
9.532052,1775668811.646855,599617632490244030,-2
9.539744,1775668811.646855,599617632490244030,-22
9.547495,1775668812.186962,599617633051841352,-4
9.555187,1775668812.186962,599617633051841352,22
9.562880,1775668812.186962,599617633051841352,18
9.570572,1775668812.186962,599617633051841352,20
9.578264,1775668812.186962,599617633051841352,34
9.585957,1775668812.186962,599617633051841352,36
9.593649,1775668812.186962,599617633051841352,34
9.601341,1775668812.186962,599617633051841352,36
9.609034,1775668812.186962,599617633051841352,47
9.616726,1775668812.186962,599617633051841352,59
9.624418,1775668812.186962,599617633051841352,54
9.632111,1775668812.186962,599617633051841352,43
9.639803,1775668812.186962,599617633051841352,43
9.647495,1775668812.186962,599617633051841352,52
9.655187,1775668812.186962,599617633051841352,59
9.662880,1775668812.186962,599617633051841352,68
9.670572,1775668812.186962,599617633051841352,77
9.678264,1775668812.186962,599617633051841352,86
9.685957,1775668812.186962,599617633051841352,82
9.693649,1775668812.186962,599617633051841352,66
9.701341,1775668812.186962,599617633051841352,70
9.709034,1775668812.186962,599617633051841352,84
9.716726,1775668812.186962,599617633051841352,114
9.724418,1775668812.186962,599617633051841352,171
9.732111,1775668812.186962,599617633051841352,175
9.739803,1775668812.186962,599617633051841352,116
9.747495,1775668812.186962,599617633051841352,116
9.755188,1775668812.186962,599617633051841352,146
9.762880,1775668812.186962,599617633051841352,105
9.770572,1775668812.186962,599617633051841352,52
9.778264,1775668812.186962,599617633051841352,11
9.785957,1775668812.186962,599617633051841352,-20
9.793649,1775668812.186962,599617633051841352,-9
9.801341,1775668812.186962,599617633051841352,-9
9.809034,1775668812.186962,599617633051841352,-57
9.816726,1775668812.186962,599617633051841352,-86
9.824418,1775668812.186962,599617633051841352,-59
9.832111,1775668812.186962,599617633051841352,-54
9.839803,1775668812.186962,599617633051841352,-100
9.847495,1775668812.186962,599617633051841352,-114
9.855188,1775668812.186962,599617633051841352,-105
9.862880,1775668812.186962,599617633051841352,-111
9.870572,1775668812.186962,599617633051841352,-111
9.878264,1775668812.186962,599617633051841352,-98
9.885957,1775668812.186962,599617633051841352,-89
9.893649,1775668812.186962,599617633051841352,-95
9.901341,1775668812.186962,599617633051841352,-111
9.909034,1775668812.186962,599617633051841352,-127
9.916726,1775668812.186962,599617633051841352,-114
9.924418,1775668812.186962,599617633051841352,-41
9.932111,1775668812.186962,599617633051841352,20
9.939803,1775668812.186962,599617633051841352,0
9.947495,1775668812.186962,599617633051841352,-29
9.955188,1775668812.186962,599617633051841352,-22
9.962880,1775668812.186962,599617633051841352,-66
9.970572,1775668812.186962,599617633051841352,-182
9.978264,1775668812.186962,599617633051841352,-317
9.985957,1775668812.186962,599617633051841352,-433
9.993649,1775668812.186962,599617633051841352,-458
10.001341,1775668812.186962,599617633051841352,-435
10.009034,1775668812.186962,599617633051841352,-433
10.016726,1775668812.186962,599617633051841352,-385
10.024418,1775668812.186962,599617633051841352,-273
10.032111,1775668812.186962,599617633051841352,-237
10.039803,1775668812.186962,599617633051841352,-312
10.047495,1775668812.186962,599617633051841352,-257
10.055187,1775668812.186962,599617633051841352,-57
10.062880,1775668812.186962,599617633051841352,100
10.070572,1775668812.186962,599617633051841352,230
10.078264,1775668812.186962,599617633051841352,433
10.085957,1775668812.186962,599617633051841352,730
10.093649,1775668812.186962,599617633051841352,988
10.101341,1775668812.186962,599617633051841352,1088
10.109123,1775668812.863296,599617633613469194,1086
10.116815,1775668812.863296,599617633613469194,1113
10.124508,1775668812.863296,599617633613469194,1164
10.132200,1775668812.863296,599617633613469194,1113
10.139892,1775668812.863296,599617633613469194,1198
10.147585,1775668812.863296,599617633613469194,1561
10.155277,1775668812.863296,599617633613469194,1604
10.162969,1775668812.863296,599617633613469194,1225
10.170662,1775668812.863296,599617633613469194,1200
10.178354,1775668812.863296,599617633613469194,1378
10.186046,1775668812.863296,599617633613469194,1182
10.193738,1775668812.863296,599617633613469194,933
10.201431,1775668812.863296,599617633613469194,483
10.209123,1775668812.863296,599617633613469194,-559
10.216815,1775668812.863296,599617633613469194,-1166
10.224508,1775668812.863296,599617633613469194,-522
10.232200,1775668812.863296,599617633613469194,312
10.239892,1775668812.863296,599617633613469194,410
10.247585,1775668812.863296,599617633613469194,365
10.255277,1775668812.863296,599617633613469194,563
10.262969,1775668812.863296,599617633613469194,634
10.270662,1775668812.863296,599617633613469194,604
10.278354,1775668812.863296,599617633613469194,607
10.286046,1775668812.863296,599617633613469194,499
10.293738,1775668812.863296,599617633613469194,326
10.301431,1775668812.863296,599617633613469194,171
10.309123,1775668812.863296,599617633613469194,-100
10.316815,1775668812.863296,599617633613469194,-538
10.324508,1775668812.863296,599617633613469194,-867
10.332200,1775668812.863296,599617633613469194,-951
10.339892,1775668812.863296,599617633613469194,-992
10.347585,1775668812.863296,599617633613469194,-1082
10.355277,1775668812.863296,599617633613469194,-1155
10.362969,1775668812.863296,599617633613469194,-1184
10.370661,1775668812.863296,599617633613469194,-1187
10.378354,1775668812.863296,599617633613469194,-1157
10.386046,1775668812.863296,599617633613469194,-1125
10.393739,1775668812.863296,599617633613469194,-1100
10.401431,1775668812.863296,599617633613469194,-1063
10.409123,1775668812.863296,599617633613469194,-1027
10.416815,1775668812.863296,599617633613469194,-981
10.424508,1775668812.863296,599617633613469194,-933
10.432200,1775668812.863296,599617633613469194,-919
10.439892,1775668812.863296,599617633613469194,-924
10.447585,1775668812.863296,599617633613469194,-924
10.455277,1775668812.863296,599617633613469194,-922
10.462969,1775668812.863296,599617633613469194,-901
10.470662,1775668812.863296,599617633613469194,-874
10.478354,1775668812.863296,599617633613469194,-837
10.486046,1775668812.863296,599617633613469194,-792
10.493738,1775668812.863296,599617633613469194,-760
10.501431,1775668812.863296,599617633613469194,-714
10.509123,1775668812.863296,599617633613469194,-648
10.516815,1775668812.863296,599617633613469194,-595
10.524508,1775668812.863296,599617633613469194,-563
10.532200,1775668812.863296,599617633613469194,-534
10.539892,1775668812.863296,599617633613469194,-486
10.547585,1775668812.863296,599617633613469194,-433
10.555277,1775668812.863296,599617633613469194,-399
10.562969,1775668812.863296,599617633613469194,-365
10.570662,1775668812.863296,599617633613469194,-340
10.578354,1775668812.863296,599617633613469194,-321
10.586046,1775668812.863296,599617633613469194,-299
10.593738,1775668812.863296,599617633613469194,-269
10.601431,1775668812.863296,599617633613469194,-235
10.609123,1775668812.863296,599617633613469194,-212
10.616815,1775668812.863296,599617633613469194,-187
10.624508,1775668812.863296,599617633613469194,-148
10.632200,1775668812.863296,599617633613469194,-136
10.639892,1775668812.863296,599617633613469194,-139
10.647585,1775668812.863296,599617633613469194,-125
10.655277,1775668812.863296,599617633613469194,-116
10.662969,1775668812.863296,599617633613469194,-118
10.670751,1775668813.359007,599617634175097034,-125
10.678443,1775668813.359007,599617634175097034,-123
10.686136,1775668813.359007,599617634175097034,-118
10.693828,1775668813.359007,599617634175097034,-116
10.701520,1775668813.359007,599617634175097034,-102
10.709212,1775668813.359007,599617634175097034,-91
10.716905,1775668813.359007,599617634175097034,-86
10.724597,1775668813.359007,599617634175097034,-68
10.732289,1775668813.359007,599617634175097034,-52
10.739982,1775668813.359007,599617634175097034,-45
10.747674,1775668813.359007,599617634175097034,-29
10.755366,1775668813.359007,599617634175097034,-18
10.763059,1775668813.359007,599617634175097034,-11
10.770751,1775668813.359007,599617634175097034,20
10.778443,1775668813.359007,599617634175097034,130
10.786136,1775668813.359007,599617634175097034,315
10.793828,1775668813.359007,599617634175097034,372
10.801520,1775668813.359007,599617634175097034,82
10.809212,1775668813.359007,599617634175097034,-342
10.816905,1775668813.359007,599617634175097034,-429
10.824597,1775668813.359007,599617634175097034,-157
10.832289,1775668813.359007,599617634175097034,47
10.839982,1775668813.359007,599617634175097034,61
10.847674,1775668813.359007,599617634175097034,61
10.855366,1775668813.359007,599617634175097034,86
10.863059,1775668813.359007,599617634175097034,93
10.870751,1775668813.359007,599617634175097034,98
10.878443,1775668813.359007,599617634175097034,114
10.886136,1775668813.359007,599617634175097034,127
10.893828,1775668813.359007,599617634175097034,130
10.901520,1775668813.359007,599617634175097034,136
10.909212,1775668813.359007,599617634175097034,143
10.916905,1775668813.359007,599617634175097034,146
10.924597,1775668813.359007,599617634175097034,148
10.932289,1775668813.359007,599617634175097034,146
10.939982,1775668813.359007,599617634175097034,150
10.947674,1775668813.359007,599617634175097034,157
10.955366,1775668813.359007,599617634175097034,159
10.963059,1775668813.359007,599617634175097034,168
10.970751,1775668813.359007,599617634175097034,175
10.978443,1775668813.359007,599617634175097034,180
10.986136,1775668813.359007,599617634175097034,194
10.993828,1775668813.359007,599617634175097034,200
11.001520,1775668813.359007,599617634175097034,212
11.009212,1775668813.359007,599617634175097034,232
11.016905,1775668813.359007,599617634175097034,241
11.024597,1775668813.359007,599617634175097034,248
11.032289,1775668813.359007,599617634175097034,253
11.039982,1775668813.359007,599617634175097034,248
11.047674,1775668813.359007,599617634175097034,241
11.055366,1775668813.359007,599617634175097034,237
11.063059,1775668813.359007,599617634175097034,239
11.070751,1775668813.359007,599617634175097034,228
11.078443,1775668813.359007,599617634175097034,203
11.086136,1775668813.359007,599617634175097034,171
11.093828,1775668813.359007,599617634175097034,132
11.101520,1775668813.359007,599617634175097034,100
11.109213,1775668813.359007,599617634175097034,75
11.116905,1775668813.359007,599617634175097034,50
11.124597,1775668813.359007,599617634175097034,41
11.132289,1775668813.359007,599617634175097034,34
11.139982,1775668813.359007,599617634175097034,34
11.147674,1775668813.359007,599617634175097034,36
11.155366,1775668813.359007,599617634175097034,29
11.163059,1775668813.359007,599617634175097034,29
11.170751,1775668813.359007,599617634175097034,27
11.178443,1775668813.359007,599617634175097034,29
11.186136,1775668813.359007,599617634175097034,36
11.193828,1775668813.359007,599617634175097034,31
11.201520,1775668813.359007,599617634175097034,36
11.209212,1775668813.359007,599617634175097034,47
11.216905,1775668813.359007,599617634175097034,45
11.224597,1775668813.359007,599617634175097034,36
11.232379,1775668813.942252,599617634736724874,34
11.240071,1775668813.942252,599617634736724874,41
11.247763,1775668813.942252,599617634736724874,36
11.255456,1775668813.942252,599617634736724874,34
11.263148,1775668813.942252,599617634736724874,57
11.270840,1775668813.942252,599617634736724874,68
11.278533,1775668813.942252,599617634736724874,59
11.286225,1775668813.942252,599617634736724874,61
11.293917,1775668813.942252,599617634736724874,54
11.301610,1775668813.942252,599617634736724874,41
11.309302,1775668813.942252,599617634736724874,22
11.316994,1775668813.942252,599617634736724874,6
11.324686,1775668813.942252,599617634736724874,0
11.332379,1775668813.942252,599617634736724874,-9
11.340071,1775668813.942252,599617634736724874,-11
11.347763,1775668813.942252,599617634736724874,-6
11.355456,1775668813.942252,599617634736724874,-9
11.363148,1775668813.942252,599617634736724874,-2
11.370840,1775668813.942252,599617634736724874,6
11.378533,1775668813.942252,599617634736724874,9
11.386225,1775668813.942252,599617634736724874,20
11.393917,1775668813.942252,599617634736724874,27
11.401609,1775668813.942252,599617634736724874,41
11.409302,1775668813.942252,599617634736724874,100
11.416994,1775668813.942252,599617634736724874,267
11.424686,1775668813.942252,599617634736724874,479
11.432379,1775668813.942252,599617634736724874,426
11.440071,1775668813.942252,599617634736724874,-29
11.447763,1775668813.942252,599617634736724874,-435
11.455456,1775668813.942252,599617634736724874,-369
11.463148,1775668813.942252,599617634736724874,-82
11.470840,1775668813.942252,599617634736724874,41
11.478533,1775668813.942252,599617634736724874,27
11.486225,1775668813.942252,599617634736724874,29
11.493917,1775668813.942252,599617634736724874,43
11.501609,1775668813.942252,599617634736724874,41
11.509302,1775668813.942252,599617634736724874,31
11.516994,1775668813.942252,599617634736724874,38
11.524686,1775668813.942252,599617634736724874,54
11.532379,1775668813.942252,599617634736724874,57
11.540071,1775668813.942252,599617634736724874,57
11.547763,1775668813.942252,599617634736724874,57
11.555456,1775668813.942252,599617634736724874,52
11.563148,1775668813.942252,599617634736724874,59
11.570840,1775668813.942252,599617634736724874,63
11.578533,1775668813.942252,599617634736724874,70
11.586225,1775668813.942252,599617634736724874,84
11.593917,1775668813.942252,599617634736724874,84
11.601609,1775668813.942252,599617634736724874,82
11.609302,1775668813.942252,599617634736724874,84
11.616994,1775668813.942252,599617634736724874,93
11.624686,1775668813.942252,599617634736724874,116
11.632379,1775668813.942252,599617634736724874,132
11.640071,1775668813.942252,599617634736724874,139
11.647763,1775668813.942252,599617634736724874,152
11.655456,1775668813.942252,599617634736724874,155
11.663148,1775668813.942252,599617634736724874,157
11.670840,1775668813.942252,599617634736724874,162
11.678532,1775668813.942252,599617634736724874,164
11.686225,1775668813.942252,599617634736724874,162
11.693917,1775668813.942252,599617634736724874,155
11.701609,1775668813.942252,599617634736724874,141
11.709302,1775668813.942252,599617634736724874,109
11.716994,1775668813.942252,599617634736724874,63
11.724686,1775668813.942252,599617634736724874,34
11.732379,1775668813.942252,599617634736724874,9
11.740071,1775668813.942252,599617634736724874,-13
11.747763,1775668813.942252,599617634736724874,-29
11.755456,1775668813.942252,599617634736724874,-43
11.763148,1775668813.942252,599617634736724874,-50
11.770840,1775668813.942252,599617634736724874,-52
11.778533,1775668813.942252,599617634736724874,-47
11.786225,1775668813.942252,599617634736724874,-43
11.794007,1775668814.481803,599617635298352714,-43
11.801699,1775668814.481803,599617635298352714,-36
11.809391,1775668814.481803,599617635298352714,-29
11.817083,1775668814.481803,599617635298352714,-36
11.824776,1775668814.481803,599617635298352714,-38
11.832468,1775668814.481803,599617635298352714,-36
11.840160,1775668814.481803,599617635298352714,-31
11.847853,1775668814.481803,599617635298352714,-27
11.855545,1775668814.481803,599617635298352714,-27
11.863237,1775668814.481803,599617635298352714,-25
11.870930,1775668814.481803,599617635298352714,-25
11.878622,1775668814.481803,599617635298352714,-25
11.886314,1775668814.481803,599617635298352714,-20
11.894007,1775668814.481803,599617635298352714,-18
11.901699,1775668814.481803,599617635298352714,-13
11.909391,1775668814.481803,599617635298352714,-2
11.917084,1775668814.481803,599617635298352714,4
11.924776,1775668814.481803,599617635298352714,-4
11.932468,1775668814.481803,599617635298352714,-27
11.940160,1775668814.481803,599617635298352714,-41
11.947853,1775668814.481803,599617635298352714,-54
11.955545,1775668814.481803,599617635298352714,-68
11.963237,1775668814.481803,599617635298352714,-70
11.970930,1775668814.481803,599617635298352714,-63
11.978622,1775668814.481803,599617635298352714,-61
11.986314,1775668814.481803,599617635298352714,-54
11.994007,1775668814.481803,599617635298352714,-52
12.001699,1775668814.481803,599617635298352714,-43
12.009391,1775668814.481803,599617635298352714,-34
12.017084,1775668814.481803,599617635298352714,-36
12.024776,1775668814.481803,599617635298352714,-34
12.032468,1775668814.481803,599617635298352714,25
12.040160,1775668814.481803,599617635298352714,194
12.047853,1775668814.481803,599617635298352714,415
12.055545,1775668814.481803,599617635298352714,401
12.063237,1775668814.481803,599617635298352714,-22
12.070930,1775668814.481803,599617635298352714,-445
12.078622,1775668814.481803,599617635298352714,-415
12.086314,1775668814.481803,599617635298352714,-146
12.094007,1775668814.481803,599617635298352714,-13
12.101699,1775668814.481803,599617635298352714,13
12.109391,1775668814.481803,599617635298352714,41
12.117083,1775668814.481803,599617635298352714,20
12.124776,1775668814.481803,599617635298352714,6
12.132468,1775668814.481803,599617635298352714,36
12.140160,1775668814.481803,599617635298352714,50
12.147853,1775668814.481803,599617635298352714,38
12.155545,1775668814.481803,599617635298352714,31
12.163237,1775668814.481803,599617635298352714,31
12.170930,1775668814.481803,599617635298352714,34
12.178622,1775668814.481803,599617635298352714,31
12.186314,1775668814.481803,599617635298352714,25
12.194007,1775668814.481803,599617635298352714,27
12.201699,1775668814.481803,599617635298352714,34
12.209391,1775668814.481803,599617635298352714,34
12.217083,1775668814.481803,599617635298352714,27
12.224776,1775668814.481803,599617635298352714,41
12.232468,1775668814.481803,599617635298352714,61
12.240160,1775668814.481803,599617635298352714,63
12.247853,1775668814.481803,599617635298352714,68
12.255545,1775668814.481803,599617635298352714,84
12.263237,1775668814.481803,599617635298352714,98
12.270930,1775668814.481803,599617635298352714,109
12.278622,1775668814.481803,599617635298352714,120
12.286314,1775668814.481803,599617635298352714,127
12.294007,1775668814.481803,599617635298352714,127
12.301699,1775668814.481803,599617635298352714,123
12.309391,1775668814.481803,599617635298352714,120
12.317083,1775668814.481803,599617635298352714,118
12.324776,1775668814.481803,599617635298352714,102
12.332468,1775668814.481803,599617635298352714,75
12.340160,1775668814.481803,599617635298352714,47
12.347853,1775668814.481803,599617635298352714,25
12.355634,1775668815.022438,599617635859980554,2
12.363327,1775668815.022438,599617635859980554,-13
12.371019,1775668815.022438,599617635859980554,-27
12.378711,1775668815.022438,599617635859980554,-43
12.386404,1775668815.022438,599617635859980554,-43
12.394096,1775668815.022438,599617635859980554,-38
12.401788,1775668815.022438,599617635859980554,-31
12.409481,1775668815.022438,599617635859980554,-29
12.417173,1775668815.022438,599617635859980554,-34
12.424865,1775668815.022438,599617635859980554,-34
12.432557,1775668815.022438,599617635859980554,-29
12.440250,1775668815.022438,599617635859980554,-20
12.447942,1775668815.022438,599617635859980554,-20
12.455634,1775668815.022438,599617635859980554,-31
12.463327,1775668815.022438,599617635859980554,-31
12.471019,1775668815.022438,599617635859980554,-25
12.478711,1775668815.022438,599617635859980554,-29
12.486404,1775668815.022438,599617635859980554,-34
12.494096,1775668815.022438,599617635859980554,-34
12.501788,1775668815.022438,599617635859980554,-36
12.509481,1775668815.022438,599617635859980554,-34
12.517173,1775668815.022438,599617635859980554,-11
12.524865,1775668815.022438,599617635859980554,11
12.532557,1775668815.022438,599617635859980554,6
12.540250,1775668815.022438,599617635859980554,-4
12.547942,1775668815.022438,599617635859980554,0
12.555634,1775668815.022438,599617635859980554,-11
12.563327,1775668815.022438,599617635859980554,-34
12.571019,1775668815.022438,599617635859980554,-45
12.578711,1775668815.022438,599617635859980554,-52
12.586404,1775668815.022438,599617635859980554,-57
12.594096,1775668815.022438,599617635859980554,-54
12.601788,1775668815.022438,599617635859980554,-50
12.609481,1775668815.022438,599617635859980554,-50
12.617173,1775668815.022438,599617635859980554,-50
12.624865,1775668815.022438,599617635859980554,-41
12.632558,1775668815.022438,599617635859980554,-31
12.640250,1775668815.022438,599617635859980554,-31
12.647942,1775668815.022438,599617635859980554,-34
12.655634,1775668815.022438,599617635859980554,-27
12.663327,1775668815.022438,599617635859980554,45
12.671019,1775668815.022438,599617635859980554,232
12.678711,1775668815.022438,599617635859980554,435
12.686404,1775668815.022438,599617635859980554,337
12.694096,1775668815.022438,599617635859980554,-120
12.701788,1775668815.022438,599617635859980554,-429
12.709481,1775668815.022438,599617635859980554,-278
12.717173,1775668815.022438,599617635859980554,-41
12.724865,1775668815.022438,599617635859980554,-2
12.732558,1775668815.022438,599617635859980554,-20
12.740250,1775668815.022438,599617635859980554,0
12.747942,1775668815.022438,599617635859980554,6
12.755634,1775668815.022438,599617635859980554,2
12.763327,1775668815.022438,599617635859980554,11
12.771019,1775668815.022438,599617635859980554,15
12.778711,1775668815.022438,599617635859980554,15
12.786404,1775668815.022438,599617635859980554,18
12.794096,1775668815.022438,599617635859980554,13
12.801788,1775668815.022438,599617635859980554,13
12.809481,1775668815.022438,599617635859980554,18
12.817173,1775668815.022438,599617635859980554,22
12.824865,1775668815.022438,599617635859980554,27
12.832557,1775668815.022438,599617635859980554,27
12.840250,1775668815.022438,599617635859980554,31
12.847942,1775668815.022438,599617635859980554,43
12.855634,1775668815.022438,599617635859980554,47
12.863327,1775668815.022438,599617635859980554,59
12.871019,1775668815.022438,599617635859980554,68
12.878711,1775668815.022438,599617635859980554,70
12.886404,1775668815.022438,599617635859980554,86
12.894096,1775668815.022438,599617635859980554,105
12.901788,1775668815.022438,599617635859980554,114
12.909481,1775668815.022438,599617635859980554,123
12.917262,1775668815.562118,599617636421608394,127
12.924955,1775668815.562118,599617636421608394,132
12.932647,1775668815.562118,599617636421608394,134
12.940339,1775668815.562118,599617636421608394,136
12.948032,1775668815.562118,599617636421608394,141
12.955724,1775668815.562118,599617636421608394,123
12.963416,1775668815.562118,599617636421608394,75
12.971108,1775668815.562118,599617636421608394,41
12.978801,1775668815.562118,599617636421608394,31
12.986493,1775668815.562118,599617636421608394,15
12.994185,1775668815.562118,599617636421608394,-2
13.001878,1775668815.562118,599617636421608394,-13
13.009570,1775668815.562118,599617636421608394,-31
13.017262,1775668815.562118,599617636421608394,-54
13.024955,1775668815.562118,599617636421608394,-79
13.032647,1775668815.562118,599617636421608394,-120
13.040339,1775668815.562118,599617636421608394,-182
13.048032,1775668815.562118,599617636421608394,-303
13.055724,1775668815.562118,599617636421608394,-495
13.063416,1775668815.562118,599617636421608394,-632
13.071108,1775668815.562118,599617636421608394,-627
13.078801,1775668815.562118,599617636421608394,-525
13.086493,1775668815.562118,599617636421608394,-397
13.094185,1775668815.562118,599617636421608394,-260
13.101878,1775668815.562118,599617636421608394,-109
13.109570,1775668815.562118,599617636421608394,22
13.117262,1775668815.562118,599617636421608394,107
13.124955,1775668815.562118,599617636421608394,157
13.132647,1775668815.562118,599617636421608394,191
13.140339,1775668815.562118,599617636421608394,216
13.148031,1775668815.562118,599617636421608394,230
13.155724,1775668815.562118,599617636421608394,214
13.163416,1775668815.562118,599617636421608394,180
13.171108,1775668815.562118,599617636421608394,164
13.178801,1775668815.562118,599617636421608394,148
13.186493,1775668815.562118,599617636421608394,118
13.194185,1775668815.562118,599617636421608394,91
13.201878,1775668815.562118,599617636421608394,82
13.209570,1775668815.562118,599617636421608394,77
13.217262,1775668815.562118,599617636421608394,66
13.224955,1775668815.562118,599617636421608394,43
13.232647,1775668815.562118,599617636421608394,9
13.240339,1775668815.562118,599617636421608394,-15
13.248031,1775668815.562118,599617636421608394,-18
13.255724,1775668815.562118,599617636421608394,0
13.263416,1775668815.562118,599617636421608394,50
13.271108,1775668815.562118,599617636421608394,118
13.278801,1775668815.562118,599617636421608394,191
13.286493,1775668815.562118,599617636421608394,301
13.294185,1775668815.562118,599617636421608394,502
13.301878,1775668815.562118,599617636421608394,709
13.309570,1775668815.562118,599617636421608394,620
13.317262,1775668815.562118,599617636421608394,164
13.324955,1775668815.562118,599617636421608394,-168
13.332647,1775668815.562118,599617636421608394,-79
13.340339,1775668815.562118,599617636421608394,116
13.348032,1775668815.562118,599617636421608394,155
13.355724,1775668815.562118,599617636421608394,127
13.363416,1775668815.562118,599617636421608394,123
13.371108,1775668815.562118,599617636421608394,114
13.378801,1775668815.562118,599617636421608394,86
13.386493,1775668815.562118,599617636421608394,63
13.394185,1775668815.562118,599617636421608394,50
13.401878,1775668815.562118,599617636421608394,45
13.409570,1775668815.562118,599617636421608394,43
13.417262,1775668815.562118,599617636421608394,38
13.424955,1775668815.562118,599617636421608394,34
13.432647,1775668815.562118,599617636421608394,31
13.440339,1775668815.562118,599617636421608394,29
13.448032,1775668815.562118,599617636421608394,27
13.455724,1775668815.562118,599617636421608394,29
13.463416,1775668815.562118,599617636421608394,31
13.471108,1775668815.562118,599617636421608394,36
13.478885,1775668816.191867,599617636983231150,41
13.486577,1775668816.191867,599617636983231150,47
13.494269,1775668816.191867,599617636983231150,54
13.501962,1775668816.191867,599617636983231150,63
13.509654,1775668816.191867,599617636983231150,77
13.517346,1775668816.191867,599617636983231150,89
13.525039,1775668816.191867,599617636983231150,98
13.532731,1775668816.191867,599617636983231150,102
13.540423,1775668816.191867,599617636983231150,109
13.548116,1775668816.191867,599617636983231150,118
13.555808,1775668816.191867,599617636983231150,118
13.563500,1775668816.191867,599617636983231150,114
13.571193,1775668816.191867,599617636983231150,105
13.578885,1775668816.191867,599617636983231150,89
13.586577,1775668816.191867,599617636983231150,68
13.594270,1775668816.191867,599617636983231150,41
13.601962,1775668816.191867,599617636983231150,4
13.609654,1775668816.191867,599617636983231150,-29
13.617346,1775668816.191867,599617636983231150,-45
13.625039,1775668816.191867,599617636983231150,-47
13.632731,1775668816.191867,599617636983231150,-61
13.640423,1775668816.191867,599617636983231150,-86
13.648116,1775668816.191867,599617636983231150,-91
13.655808,1775668816.191867,599617636983231150,-82
13.663500,1775668816.191867,599617636983231150,-82
13.671193,1775668816.191867,599617636983231150,-84
13.678885,1775668816.191867,599617636983231150,-73
13.686577,1775668816.191867,599617636983231150,-47
13.694270,1775668816.191867,599617636983231150,-43
13.701962,1775668816.191867,599617636983231150,-77
13.709654,1775668816.191867,599617636983231150,-95
13.717346,1775668816.191867,599617636983231150,-73
13.725039,1775668816.191867,599617636983231150,-57
13.732731,1775668816.191867,599617636983231150,-66
13.740423,1775668816.191867,599617636983231150,-68
13.748116,1775668816.191867,599617636983231150,-61
13.755808,1775668816.191867,599617636983231150,-59
13.763500,1775668816.191867,599617636983231150,-41
13.771193,1775668816.191867,599617636983231150,-13
13.778885,1775668816.191867,599617636983231150,-18
13.786577,1775668816.191867,599617636983231150,-34
13.794270,1775668816.191867,599617636983231150,-31
13.801962,1775668816.191867,599617636983231150,-34
13.809654,1775668816.191867,599617636983231150,-61
13.817346,1775668816.191867,599617636983231150,-86
13.825039,1775668816.191867,599617636983231150,-91
13.832731,1775668816.191867,599617636983231150,-89
13.840423,1775668816.191867,599617636983231150,-93
13.848116,1775668816.191867,599617636983231150,-105
13.855808,1775668816.191867,599617636983231150,-111
13.863500,1775668816.191867,599617636983231150,-111
13.871193,1775668816.191867,599617636983231150,-109
13.878885,1775668816.191867,599617636983231150,-100
13.886577,1775668816.191867,599617636983231150,-89
13.894269,1775668816.191867,599617636983231150,-91
13.901962,1775668816.191867,599617636983231150,-79
13.909654,1775668816.191867,599617636983231150,-11
13.917346,1775668816.191867,599617636983231150,157
13.925039,1775668816.191867,599617636983231150,353
13.932731,1775668816.191867,599617636983231150,280
13.940423,1775668816.191867,599617636983231150,-143
13.948116,1775668816.191867,599617636983231150,-458
13.955808,1775668816.191867,599617636983231150,-365
13.963500,1775668816.191867,599617636983231150,-130
13.971193,1775668816.191867,599617636983231150,-27
13.978885,1775668816.191867,599617636983231150,-29
13.986577,1775668816.191867,599617636983231150,-41
13.994269,1775668816.191867,599617636983231150,-31
14.001962,1775668816.191867,599617636983231150,-27
14.009654,1775668816.191867,599617636983231150,-29
14.017346,1775668816.191867,599617636983231150,-25
14.025039,1775668816.191867,599617636983231150,-20
14.032731,1775668816.191867,599617636983231150,-25
14.040487,1775668816.731758,599617637544833558,-20
14.048180,1775668816.731758,599617637544833558,-9
14.055872,1775668816.731758,599617637544833558,-9
14.063564,1775668816.731758,599617637544833558,-15
14.071257,1775668816.731758,599617637544833558,-6
14.078949,1775668816.731758,599617637544833558,11
14.086641,1775668816.731758,599617637544833558,13
14.094334,1775668816.731758,599617637544833558,25
14.102026,1775668816.731758,599617637544833558,45
14.109718,1775668816.731758,599617637544833558,45
14.117410,1775668816.731758,599617637544833558,47
14.125103,1775668816.731758,599617637544833558,70
14.132795,1775668816.731758,599617637544833558,86
14.140487,1775668816.731758,599617637544833558,100
14.148180,1775668816.731758,599617637544833558,116
14.155872,1775668816.731758,599617637544833558,125
14.163564,1775668816.731758,599617637544833558,134
14.171257,1775668816.731758,599617637544833558,141
14.178949,1775668816.731758,599617637544833558,141
14.186641,1775668816.731758,599617637544833558,139
14.194334,1775668816.731758,599617637544833558,132
14.202026,1775668816.731758,599617637544833558,118
14.209718,1775668816.731758,599617637544833558,95
14.217410,1775668816.731758,599617637544833558,73
14.225103,1775668816.731758,599617637544833558,50
14.232795,1775668816.731758,599617637544833558,22
14.240487,1775668816.731758,599617637544833558,0
14.248180,1775668816.731758,599617637544833558,-18
14.255872,1775668816.731758,599617637544833558,-36
14.263564,1775668816.731758,599617637544833558,-45
14.271257,1775668816.731758,599617637544833558,-43
14.278949,1775668816.731758,599617637544833558,-45
14.286641,1775668816.731758,599617637544833558,-52
14.294334,1775668816.731758,599617637544833558,-52
14.302026,1775668816.731758,599617637544833558,-45
14.309718,1775668816.731758,599617637544833558,-41
14.317410,1775668816.731758,599617637544833558,-43
14.325103,1775668816.731758,599617637544833558,-41
14.332795,1775668816.731758,599617637544833558,-36
14.340487,1775668816.731758,599617637544833558,-50
14.348180,1775668816.731758,599617637544833558,-61
14.355872,1775668816.731758,599617637544833558,-70
14.363564,1775668816.731758,599617637544833558,-77
14.371257,1775668816.731758,599617637544833558,-79
14.378949,1775668816.731758,599617637544833558,-75
14.386641,1775668816.731758,599617637544833558,-61
14.394333,1775668816.731758,599617637544833558,-34
14.402026,1775668816.731758,599617637544833558,-4
14.409718,1775668816.731758,599617637544833558,-9
14.417410,1775668816.731758,599617637544833558,-22
14.425103,1775668816.731758,599617637544833558,-13
14.432795,1775668816.731758,599617637544833558,-15
14.440487,1775668816.731758,599617637544833558,-38
14.448180,1775668816.731758,599617637544833558,-54
14.455872,1775668816.731758,599617637544833558,-61
14.463564,1775668816.731758,599617637544833558,-75
14.471257,1775668816.731758,599617637544833558,-82
14.478949,1775668816.731758,599617637544833558,-77
14.486641,1775668816.731758,599617637544833558,-77
14.494334,1775668816.731758,599617637544833558,-79
14.502026,1775668816.731758,599617637544833558,-75
14.509718,1775668816.731758,599617637544833558,-70
14.517410,1775668816.731758,599617637544833558,-73
14.525103,1775668816.731758,599617637544833558,-66
14.532795,1775668816.731758,599617637544833558,-50
14.540487,1775668816.731758,599617637544833558,11
14.548180,1775668816.731758,599617637544833558,175
14.555872,1775668816.731758,599617637544833558,356
14.563564,1775668816.731758,599617637544833558,239
14.571257,1775668816.731758,599617637544833558,-219
14.578949,1775668816.731758,599617637544833558,-511
14.586641,1775668816.731758,599617637544833558,-367
14.594334,1775668816.731758,599617637544833558,-130
14.602115,1775668817.270970,599617638106461398,-52
14.609807,1775668817.270970,599617638106461398,-43
14.617500,1775668817.270970,599617638106461398,-25
14.625192,1775668817.270970,599617638106461398,-29
14.632885,1775668817.270970,599617638106461398,-38
14.640577,1775668817.270970,599617638106461398,-27
14.648269,1775668817.270970,599617638106461398,-15
14.655961,1775668817.270970,599617638106461398,-15
14.663654,1775668817.270970,599617638106461398,-11
14.671346,1775668817.270970,599617638106461398,-11
14.679038,1775668817.270970,599617638106461398,-15
14.686731,1775668817.270970,599617638106461398,-13
14.694423,1775668817.270970,599617638106461398,-11
14.702115,1775668817.270970,599617638106461398,-11
14.709808,1775668817.270970,599617638106461398,-6
14.717500,1775668817.270970,599617638106461398,0
14.725192,1775668817.270970,599617638106461398,0
14.732885,1775668817.270970,599617638106461398,6
14.740577,1775668817.270970,599617638106461398,20
14.748269,1775668817.270970,599617638106461398,36
14.755961,1775668817.270970,599617638106461398,52
14.763654,1775668817.270970,599617638106461398,63
14.771346,1775668817.270970,599617638106461398,75
14.779038,1775668817.270970,599617638106461398,100
14.786731,1775668817.270970,599617638106461398,132
14.794423,1775668817.270970,599617638106461398,139
14.802115,1775668817.270970,599617638106461398,130
14.809808,1775668817.270970,599617638106461398,132
14.817500,1775668817.270970,599617638106461398,136
14.825192,1775668817.270970,599617638106461398,118
14.832884,1775668817.270970,599617638106461398,89
14.840577,1775668817.270970,599617638106461398,75
14.848269,1775668817.270970,599617638106461398,75
14.855961,1775668817.270970,599617638106461398,52
14.863654,1775668817.270970,599617638106461398,-6
14.871346,1775668817.270970,599617638106461398,-36
14.879038,1775668817.270970,599617638106461398,-22
14.886731,1775668817.270970,599617638106461398,-27
14.894423,1775668817.270970,599617638106461398,-63
14.902115,1775668817.270970,599617638106461398,-66
14.909808,1775668817.270970,599617638106461398,-43
14.917500,1775668817.270970,599617638106461398,-34
14.925192,1775668817.270970,599617638106461398,-59
14.932884,1775668817.270970,599617638106461398,-89
14.940577,1775668817.270970,599617638106461398,-79
14.948269,1775668817.270970,599617638106461398,-66
14.955961,1775668817.270970,599617638106461398,-75
14.963654,1775668817.270970,599617638106461398,-68
14.971346,1775668817.270970,599617638106461398,-45
14.979038,1775668817.270970,599617638106461398,-38
14.986731,1775668817.270970,599617638106461398,-57
14.994423,1775668817.270970,599617638106461398,-63
15.002115,1775668817.270970,599617638106461398,-61
15.009808,1775668817.270970,599617638106461398,-77
15.017500,1775668817.270970,599617638106461398,-100
15.025192,1775668817.270970,599617638106461398,-93
15.032884,1775668817.270970,599617638106461398,-70
15.040577,1775668817.270970,599617638106461398,-57
15.048269,1775668817.270970,599617638106461398,-54
15.055961,1775668817.270970,599617638106461398,-63
15.063654,1775668817.270970,599617638106461398,-75
15.071346,1775668817.270970,599617638106461398,-79
15.079038,1775668817.270970,599617638106461398,-91
15.086731,1775668817.270970,599617638106461398,-116
15.094423,1775668817.270970,599617638106461398,-134
15.102115,1775668817.270970,599617638106461398,-134
15.109807,1775668817.270970,599617638106461398,-134
15.117500,1775668817.270970,599617638106461398,-134
15.125192,1775668817.270970,599617638106461398,-132
15.132885,1775668817.270970,599617638106461398,-134
15.140577,1775668817.270970,599617638106461398,-132
15.148269,1775668817.270970,599617638106461398,-120
15.155961,1775668817.270970,599617638106461398,-107
15.163743,1775668817.856650,599617638668089238,-100
15.171435,1775668817.856650,599617638668089238,-91
15.179128,1775668817.856650,599617638668089238,-38
15.186820,1775668817.856650,599617638668089238,111
15.194512,1775668817.856650,599617638668089238,330
15.202205,1775668817.856650,599617638668089238,328
15.209897,1775668817.856650,599617638668089238,-91
15.217589,1775668817.856650,599617638668089238,-518
15.225282,1775668817.856650,599617638668089238,-493
15.232974,1775668817.856650,599617638668089238,-235
15.240666,1775668817.856650,599617638668089238,-98
15.248358,1775668817.856650,599617638668089238,-77
15.256051,1775668817.856650,599617638668089238,-70
15.263743,1775668817.856650,599617638668089238,-63
15.271435,1775668817.856650,599617638668089238,-66
15.279128,1775668817.856650,599617638668089238,-66
15.286820,1775668817.856650,599617638668089238,-52
15.294512,1775668817.856650,599617638668089238,-45
15.302205,1775668817.856650,599617638668089238,-41
15.309897,1775668817.856650,599617638668089238,-31
15.317589,1775668817.856650,599617638668089238,-25
15.325282,1775668817.856650,599617638668089238,-22
15.332974,1775668817.856650,599617638668089238,-22
15.340666,1775668817.856650,599617638668089238,-15
15.348359,1775668817.856650,599617638668089238,-6
15.356051,1775668817.856650,599617638668089238,0
15.363743,1775668817.856650,599617638668089238,11
15.371435,1775668817.856650,599617638668089238,18
15.379128,1775668817.856650,599617638668089238,25
15.386820,1775668817.856650,599617638668089238,41
15.394512,1775668817.856650,599617638668089238,57
15.402205,1775668817.856650,599617638668089238,66
15.409897,1775668817.856650,599617638668089238,66
15.417589,1775668817.856650,599617638668089238,68
15.425282,1775668817.856650,599617638668089238,84
15.432974,1775668817.856650,599617638668089238,109
15.440666,1775668817.856650,599617638668089238,118
15.448359,1775668817.856650,599617638668089238,105
15.456051,1775668817.856650,599617638668089238,91
15.463743,1775668817.856650,599617638668089238,93
15.471435,1775668817.856650,599617638668089238,84
15.479128,1775668817.856650,599617638668089238,59
15.486820,1775668817.856650,599617638668089238,41
15.494512,1775668817.856650,599617638668089238,34
15.502205,1775668817.856650,599617638668089238,15
15.509897,1775668817.856650,599617638668089238,-4
15.517589,1775668817.856650,599617638668089238,-34
15.525282,1775668817.856650,599617638668089238,-59
15.532974,1775668817.856650,599617638668089238,-59
15.540666,1775668817.856650,599617638668089238,-66
15.548358,1775668817.856650,599617638668089238,-79
15.556051,1775668817.856650,599617638668089238,-73
15.563743,1775668817.856650,599617638668089238,-57
15.571435,1775668817.856650,599617638668089238,-52
15.579128,1775668817.856650,599617638668089238,-61
15.586820,1775668817.856650,599617638668089238,-61
15.594512,1775668817.856650,599617638668089238,-50
15.602205,1775668817.856650,599617638668089238,-27
15.609897,1775668817.856650,599617638668089238,-13
15.617589,1775668817.856650,599617638668089238,-13
15.625282,1775668817.856650,599617638668089238,-29
15.632974,1775668817.856650,599617638668089238,-50
15.640666,1775668817.856650,599617638668089238,-57
15.648358,1775668817.856650,599617638668089238,-52
15.656051,1775668817.856650,599617638668089238,-57
15.663743,1775668817.856650,599617638668089238,-57
15.671435,1775668817.856650,599617638668089238,-59
15.679128,1775668817.856650,599617638668089238,-59
15.686820,1775668817.856650,599617638668089238,-45
15.694512,1775668817.856650,599617638668089238,-34
15.702205,1775668817.856650,599617638668089238,-34
15.709897,1775668817.856650,599617638668089238,-25
15.717589,1775668817.856650,599617638668089238,0
15.725371,1775668818.442765,599617639229717078,27
15.733063,1775668818.442765,599617639229717078,31
15.740756,1775668818.442765,599617639229717078,29
15.748448,1775668818.442765,599617639229717078,29
15.756140,1775668818.442765,599617639229717078,6
15.763832,1775668818.442765,599617639229717078,-18
15.771525,1775668818.442765,599617639229717078,-25
15.779217,1775668818.442765,599617639229717078,-31
15.786909,1775668818.442765,599617639229717078,-45
15.794602,1775668818.442765,599617639229717078,-52
15.802294,1775668818.442765,599617639229717078,-52
15.809986,1775668818.442765,599617639229717078,-43
15.817679,1775668818.442765,599617639229717078,-31
15.825371,1775668818.442765,599617639229717078,-31
15.833063,1775668818.442765,599617639229717078,-45
15.840756,1775668818.442765,599617639229717078,-52
15.848448,1775668818.442765,599617639229717078,-52
15.856140,1775668818.442765,599617639229717078,-31
15.863832,1775668818.442765,599617639229717078,66
15.871525,1775668818.442765,599617639229717078,262
15.879217,1775668818.442765,599617639229717078,388
15.886909,1775668818.442765,599617639229717078,155
15.894602,1775668818.442765,599617639229717078,-296
15.902294,1775668818.442765,599617639229717078,-463
15.909986,1775668818.442765,599617639229717078,-269
15.917679,1775668818.442765,599617639229717078,-84
15.925371,1775668818.442765,599617639229717078,-54
15.933063,1775668818.442765,599617639229717078,-66
15.940756,1775668818.442765,599617639229717078,-63
15.948448,1775668818.442765,599617639229717078,-52
15.956140,1775668818.442765,599617639229717078,-38
15.963832,1775668818.442765,599617639229717078,-38
15.971525,1775668818.442765,599617639229717078,-50
15.979217,1775668818.442765,599617639229717078,-43
15.986909,1775668818.442765,599617639229717078,-41
15.994602,1775668818.442765,599617639229717078,-47
16.002294,1775668818.442765,599617639229717078,-36
16.009986,1775668818.442765,599617639229717078,-9
16.017679,1775668818.442765,599617639229717078,-9
16.025371,1775668818.442765,599617639229717078,-34
16.033063,1775668818.442765,599617639229717078,-36
16.040756,1775668818.442765,599617639229717078,-15
16.048448,1775668818.442765,599617639229717078,4
16.056140,1775668818.442765,599617639229717078,9
16.063833,1775668818.442765,599617639229717078,11
16.071525,1775668818.442765,599617639229717078,22
16.079217,1775668818.442765,599617639229717078,25
16.086909,1775668818.442765,599617639229717078,25
16.094602,1775668818.442765,599617639229717078,52
16.102294,1775668818.442765,599617639229717078,73
16.109986,1775668818.442765,599617639229717078,45
16.117679,1775668818.442765,599617639229717078,9
16.125371,1775668818.442765,599617639229717078,11
16.133063,1775668818.442765,599617639229717078,43
16.140756,1775668818.442765,599617639229717078,54
16.148448,1775668818.442765,599617639229717078,13
16.156140,1775668818.442765,599617639229717078,-18
16.163833,1775668818.442765,599617639229717078,2
16.171525,1775668818.442765,599617639229717078,0
16.179217,1775668818.442765,599617639229717078,-41
16.186909,1775668818.442765,599617639229717078,-52
16.194602,1775668818.442765,599617639229717078,-52
16.202294,1775668818.442765,599617639229717078,-77
16.209986,1775668818.442765,599617639229717078,-91
16.217679,1775668818.442765,599617639229717078,-82
16.225371,1775668818.442765,599617639229717078,-84
16.233063,1775668818.442765,599617639229717078,-93
16.240756,1775668818.442765,599617639229717078,-79
16.248448,1775668818.442765,599617639229717078,-77
16.256140,1775668818.442765,599617639229717078,-98
16.263832,1775668818.442765,599617639229717078,-89
16.271525,1775668818.442765,599617639229717078,-63
16.279217,1775668818.442765,599617639229717078,-66
16.286999,1775668818.937731,599617639791344918,-82
16.294691,1775668818.937731,599617639791344918,-77
16.302383,1775668818.937731,599617639791344918,-73
16.310076,1775668818.937731,599617639791344918,-82
16.317768,1775668818.937731,599617639791344918,-91
16.325460,1775668818.937731,599617639791344918,-91
16.333153,1775668818.937731,599617639791344918,-95
16.340845,1775668818.937731,599617639791344918,-91
16.348537,1775668818.937731,599617639791344918,-77
16.356230,1775668818.937731,599617639791344918,-79
16.363922,1775668818.937731,599617639791344918,-91
16.371614,1775668818.937731,599617639791344918,-89
16.379306,1775668818.937731,599617639791344918,-79
16.386999,1775668818.937731,599617639791344918,-84
16.394691,1775668818.937731,599617639791344918,-79
16.402383,1775668818.937731,599617639791344918,-66
16.410076,1775668818.937731,599617639791344918,-63
16.417768,1775668818.937731,599617639791344918,-70
16.425460,1775668818.937731,599617639791344918,-68
16.433153,1775668818.937731,599617639791344918,-54
16.440845,1775668818.937731,599617639791344918,-36
16.448537,1775668818.937731,599617639791344918,-27
16.456229,1775668818.937731,599617639791344918,-29
16.463922,1775668818.937731,599617639791344918,-34
16.471614,1775668818.937731,599617639791344918,-36
16.479306,1775668818.937731,599617639791344918,-50
16.486999,1775668818.937731,599617639791344918,-61
16.494691,1775668818.937731,599617639791344918,-66
16.502383,1775668818.937731,599617639791344918,-75
16.510076,1775668818.937731,599617639791344918,-86
16.517768,1775668818.937731,599617639791344918,-82
16.525460,1775668818.937731,599617639791344918,-73
16.533153,1775668818.937731,599617639791344918,-73
16.540845,1775668818.937731,599617639791344918,-63
16.548537,1775668818.937731,599617639791344918,-52
16.556229,1775668818.937731,599617639791344918,-52
16.563922,1775668818.937731,599617639791344918,-57
16.571614,1775668818.937731,599617639791344918,-43
16.579306,1775668818.937731,599617639791344918,34
16.586999,1775668818.937731,599617639791344918,223
16.594691,1775668818.937731,599617639791344918,417
16.602383,1775668818.937731,599617639791344918,326
16.610076,1775668818.937731,599617639791344918,-118
16.617768,1775668818.937731,599617639791344918,-458
16.625460,1775668818.937731,599617639791344918,-362
16.633153,1775668818.937731,599617639791344918,-114
16.640845,1775668818.937731,599617639791344918,-13
16.648537,1775668818.937731,599617639791344918,-22
16.656229,1775668818.937731,599617639791344918,-15
16.663922,1775668818.937731,599617639791344918,-9
16.671614,1775668818.937731,599617639791344918,-43
16.679306,1775668818.937731,599617639791344918,-29
16.686999,1775668818.937731,599617639791344918,25
16.694691,1775668818.937731,599617639791344918,15
16.702383,1775668818.937731,599617639791344918,-15
16.710076,1775668818.937731,599617639791344918,-11
16.717768,1775668818.937731,599617639791344918,-11
16.725460,1775668818.937731,599617639791344918,-25
16.733153,1775668818.937731,599617639791344918,-11
16.740845,1775668818.937731,599617639791344918,4
16.748537,1775668818.937731,599617639791344918,-4
16.756230,1775668818.937731,599617639791344918,6
16.763922,1775668818.937731,599617639791344918,41
16.771614,1775668818.937731,599617639791344918,59
16.779306,1775668818.937731,599617639791344918,68
16.786999,1775668818.937731,599617639791344918,77
16.794691,1775668818.937731,599617639791344918,79
16.802383,1775668818.937731,599617639791344918,86
16.810076,1775668818.937731,599617639791344918,109
16.817768,1775668818.937731,599617639791344918,134
16.825460,1775668818.937731,599617639791344918,146
16.833153,1775668818.937731,599617639791344918,157
16.840845,1775668818.937731,599617639791344918,173
16.848596,1775668819.566738,599617640352942242,171
16.856288,1775668819.566738,599617640352942242,150
16.863981,1775668819.566738,599617640352942242,148
16.871673,1775668819.566738,599617640352942242,155
16.879365,1775668819.566738,599617640352942242,134
16.887058,1775668819.566738,599617640352942242,107
16.894750,1775668819.566738,599617640352942242,89
16.902442,1775668819.566738,599617640352942242,63
16.910135,1775668819.566738,599617640352942242,31
16.917827,1775668819.566738,599617640352942242,6
16.925519,1775668819.566738,599617640352942242,-20
16.933211,1775668819.566738,599617640352942242,-41
16.940904,1775668819.566738,599617640352942242,-38
16.948596,1775668819.566738,599617640352942242,-29
16.956288,1775668819.566738,599617640352942242,-29
16.963981,1775668819.566738,599617640352942242,-34
16.971673,1775668819.566738,599617640352942242,-31
16.979365,1775668819.566738,599617640352942242,-36
16.987058,1775668819.566738,599617640352942242,-38
16.994750,1775668819.566738,599617640352942242,-36
17.002442,1775668819.566738,599617640352942242,-34
17.010135,1775668819.566738,599617640352942242,-38
17.017827,1775668819.566738,599617640352942242,-47
17.025519,1775668819.566738,599617640352942242,-45
17.033211,1775668819.566738,599617640352942242,-38
17.040904,1775668819.566738,599617640352942242,-38
17.048596,1775668819.566738,599617640352942242,-45
17.056288,1775668819.566738,599617640352942242,-47
17.063981,1775668819.566738,599617640352942242,-50
17.071673,1775668819.566738,599617640352942242,-59
17.079365,1775668819.566738,599617640352942242,-63
17.087058,1775668819.566738,599617640352942242,-68
17.094750,1775668819.566738,599617640352942242,-70
17.102442,1775668819.566738,599617640352942242,-68
17.110134,1775668819.566738,599617640352942242,-75
17.117827,1775668819.566738,599617640352942242,-89
17.125519,1775668819.566738,599617640352942242,-86
17.133211,1775668819.566738,599617640352942242,-79
17.140904,1775668819.566738,599617640352942242,-84
17.148596,1775668819.566738,599617640352942242,-82
17.156288,1775668819.566738,599617640352942242,-84
17.163981,1775668819.566738,599617640352942242,-95
17.171673,1775668819.566738,599617640352942242,-107
17.179365,1775668819.566738,599617640352942242,-105
17.187058,1775668819.566738,599617640352942242,-93
17.194750,1775668819.566738,599617640352942242,-91
17.202442,1775668819.566738,599617640352942242,-95
17.210135,1775668819.566738,599617640352942242,-86
17.217827,1775668819.566738,599617640352942242,-86
17.225519,1775668819.566738,599617640352942242,-91
17.233211,1775668819.566738,599617640352942242,-86
17.240904,1775668819.566738,599617640352942242,-73
17.248596,1775668819.566738,599617640352942242,-59
17.256288,1775668819.566738,599617640352942242,-54
17.263981,1775668819.566738,599617640352942242,-68
17.271673,1775668819.566738,599617640352942242,-82
17.279365,1775668819.566738,599617640352942242,-82
17.287058,1775668819.566738,599617640352942242,-61
17.294750,1775668819.566738,599617640352942242,-45
17.302442,1775668819.566738,599617640352942242,-47
17.310135,1775668819.566738,599617640352942242,-57
17.317827,1775668819.566738,599617640352942242,-63
17.325519,1775668819.566738,599617640352942242,-70
17.333211,1775668819.566738,599617640352942242,-89
17.340904,1775668819.566738,599617640352942242,-98
17.348596,1775668819.566738,599617640352942242,-95
17.356288,1775668819.566738,599617640352942242,-102
17.363981,1775668819.566738,599617640352942242,-102
17.371673,1775668819.566738,599617640352942242,-89
17.379365,1775668819.566738,599617640352942242,-82
17.387058,1775668819.566738,599617640352942242,-77
17.394750,1775668819.566738,599617640352942242,-66
17.402442,1775668819.566738,599617640352942242,-57
17.410224,1775668820.107192,599617640914570082,-61
17.417916,1775668820.107192,599617640914570082,-68
17.425609,1775668820.107192,599617640914570082,-34
17.433301,1775668820.107192,599617640914570082,79
17.440993,1775668820.107192,599617640914570082,292
17.448685,1775668820.107192,599617640914570082,415
17.456378,1775668820.107192,599617640914570082,136
17.464070,1775668820.107192,599617640914570082,-362
17.471762,1775668820.107192,599617640914570082,-518
17.479455,1775668820.107192,599617640914570082,-273
17.487147,1775668820.107192,599617640914570082,-63
17.494839,1775668820.107192,599617640914570082,-45
17.502532,1775668820.107192,599617640914570082,-52
17.510224,1775668820.107192,599617640914570082,-36
17.517916,1775668820.107192,599617640914570082,-36
17.525609,1775668820.107192,599617640914570082,-38
17.533301,1775668820.107192,599617640914570082,-34
17.540993,1775668820.107192,599617640914570082,-31
17.548685,1775668820.107192,599617640914570082,-31
17.556378,1775668820.107192,599617640914570082,-29
17.564070,1775668820.107192,599617640914570082,-22
17.571762,1775668820.107192,599617640914570082,-18
17.579455,1775668820.107192,599617640914570082,-15
17.587147,1775668820.107192,599617640914570082,-9
17.594839,1775668820.107192,599617640914570082,-4
17.602532,1775668820.107192,599617640914570082,-4
17.610224,1775668820.107192,599617640914570082,2
17.617916,1775668820.107192,599617640914570082,15
17.625609,1775668820.107192,599617640914570082,31
17.633301,1775668820.107192,599617640914570082,47
17.640993,1775668820.107192,599617640914570082,61
17.648685,1775668820.107192,599617640914570082,54
17.656378,1775668820.107192,599617640914570082,43
17.664070,1775668820.107192,599617640914570082,61
17.671762,1775668820.107192,599617640914570082,89
17.679455,1775668820.107192,599617640914570082,105
17.687147,1775668820.107192,599617640914570082,123
17.694839,1775668820.107192,599617640914570082,130
17.702532,1775668820.107192,599617640914570082,107
17.710224,1775668820.107192,599617640914570082,89
17.717916,1775668820.107192,599617640914570082,102
17.725609,1775668820.107192,599617640914570082,111
17.733301,1775668820.107192,599617640914570082,93
17.740993,1775668820.107192,599617640914570082,73
17.748685,1775668820.107192,599617640914570082,52
17.756378,1775668820.107192,599617640914570082,25
17.764070,1775668820.107192,599617640914570082,-4
17.771762,1775668820.107192,599617640914570082,-29
17.779455,1775668820.107192,599617640914570082,-45
17.787147,1775668820.107192,599617640914570082,-59
17.794839,1775668820.107192,599617640914570082,-66
17.802532,1775668820.107192,599617640914570082,-61
17.810224,1775668820.107192,599617640914570082,-59
17.817916,1775668820.107192,599617640914570082,-61
17.825608,1775668820.107192,599617640914570082,-61
17.833301,1775668820.107192,599617640914570082,-66
17.840993,1775668820.107192,599617640914570082,-73
17.848686,1775668820.107192,599617640914570082,-70
17.856378,1775668820.107192,599617640914570082,-63
17.864070,1775668820.107192,599617640914570082,-66
17.871762,1775668820.107192,599617640914570082,-75
17.879455,1775668820.107192,599617640914570082,-82
17.887147,1775668820.107192,599617640914570082,-77
17.894839,1775668820.107192,599617640914570082,-77
17.902532,1775668820.107192,599617640914570082,-82
17.910224,1775668820.107192,599617640914570082,-89
17.917916,1775668820.107192,599617640914570082,-86
17.925609,1775668820.107192,599617640914570082,-84
17.933301,1775668820.107192,599617640914570082,-84
17.940993,1775668820.107192,599617640914570082,-82
17.948685,1775668820.107192,599617640914570082,-84
17.956378,1775668820.107192,599617640914570082,-93
17.964070,1775668820.107192,599617640914570082,-86
