time,t_wall,t_device_ns,ecg
0.000000,1775669478.178567,599616028220482888,-2450
0.007692,1775669478.178567,599616028220482888,927
0.015385,1775669478.178567,599616028220482888,10861
0.023077,1775669478.178567,599616028220482888,16578
0.030769,1775669478.178567,599616028220482888,18797
0.038461,1775669478.178567,599616028220482888,18797
0.046154,1775669478.178567,599616028220482888,18246
0.053846,1775669478.178567,599616028220482888,18797
0.061538,1775669478.178567,599616028220482888,18797
0.069231,1775669478.178567,599616028220482888,18797
0.076923,1775669478.178567,599616028220482888,18797
0.084615,1775669478.178567,599616028220482888,18258
0.092308,1775669478.178567,599616028220482888,18797
0.100000,1775669478.178567,599616028220482888,18797
0.107692,1775669478.178567,599616028220482888,18797
0.115385,1775669478.178567,599616028220482888,18797
0.123077,1775669478.178567,599616028220482888,17386
0.130769,1775669478.178567,599616028220482888,18797
0.138461,1775669478.178567,599616028220482888,18797
0.146154,1775669478.178567,599616028220482888,18024
0.153846,1775669478.178567,599616028220482888,18797
0.161538,1775669478.178567,599616028220482888,17133
0.169231,1775669478.178567,599616028220482888,18797
0.176923,1775669478.178567,599616028220482888,18797
0.184615,1775669478.178567,599616028220482888,16147
0.192308,1775669478.178567,599616028220482888,18797
0.200000,1775669478.178567,599616028220482888,17062
0.207692,1775669478.178567,599616028220482888,17879
0.215385,1775669478.178567,599616028220482888,18797
0.223077,1775669478.178567,599616028220482888,15364
0.230769,1775669478.178567,599616028220482888,18797
0.238461,1775669478.178567,599616028220482888,18010
0.246154,1775669478.178567,599616028220482888,16094
0.253846,1775669478.178567,599616028220482888,18797
0.261538,1775669478.178567,599616028220482888,15263
0.269231,1775669478.178567,599616028220482888,18520
0.276923,1775669478.178567,599616028220482888,18797
0.284615,1775669478.178567,599616028220482888,14852
0.292308,1775669478.178567,599616028220482888,18797
0.300000,1775669478.178567,599616028220482888,15571
0.307692,1775669478.178567,599616028220482888,16401
0.315385,1775669478.178567,599616028220482888,18797
0.323077,1775669478.178567,599616028220482888,14122
0.330769,1775669478.178567,599616028220482888,18797
0.338462,1775669478.178567,599616028220482888,16762
0.346154,1775669478.178567,599616028220482888,14490
0.353846,1775669478.178567,599616028220482888,18797
0.361538,1775669478.178567,599616028220482888,13721
0.369231,1775669478.178567,599616028220482888,16879
0.376923,1775669478.178567,599616028220482888,17188
0.384615,1775669478.178567,599616028220482888,13108
0.392308,1775669478.178567,599616028220482888,18682
0.400000,1775669478.178567,599616028220482888,14214
0.407692,1775669478.178567,599616028220482888,14811
0.415385,1775669478.178567,599616028220482888,17785
0.423077,1775669478.178567,599616028220482888,12378
0.430769,1775669478.178567,599616028220482888,17345
0.438462,1775669478.178567,599616028220482888,15040
0.446154,1775669478.178567,599616028220482888,12968
0.453846,1775669478.178567,599616028220482888,17785
0.461538,1775669478.178567,599616028220482888,12307
0.469231,1775669478.178567,599616028220482888,15573
0.476923,1775669478.178567,599616028220482888,15972
0.484615,1775669478.178567,599616028220482888,11752
0.492308,1775669478.178567,599616028220482888,17264
0.500000,1775669478.178567,599616028220482888,12736
0.507692,1775669478.178567,599616028220482888,13604
0.515385,1775669478.178567,599616028220482888,16729
0.523077,1775669478.178567,599616028220482888,11027
0.530769,1775669478.178567,599616028220482888,16085
0.538461,1775669478.178567,599616028220482888,13932
0.546154,1775669478.178567,599616028220482888,11791
0.553846,1775669478.178567,599616028220482888,16571
0.561653,1775669478.719505,599616028782136160,11084
0.569345,1775669478.719505,599616028782136160,14471
0.577038,1775669478.719505,599616028782136160,14751
0.584730,1775669478.719505,599616028782136160,10315
0.592422,1775669478.719505,599616028782136160,15915
0.600115,1775669478.719505,599616028782136160,11557
0.607807,1775669478.719505,599616028782136160,12415
0.615499,1775669478.719505,599616028782136160,15405
0.623192,1775669478.719505,599616028782136160,9778
0.630884,1775669478.719505,599616028782136160,14816
0.638576,1775669478.719505,599616028782136160,12594
0.646269,1775669478.719505,599616028782136160,10914
0.653961,1775669478.719505,599616028782136160,15754
0.661653,1775669478.719505,599616028782136160,9723
0.669345,1775669478.719505,599616028782136160,13078
0.677038,1775669478.719505,599616028782136160,13462
0.684730,1775669478.719505,599616028782136160,9106
0.692423,1775669478.719505,599616028782136160,14981
0.700115,1775669478.719505,599616028782136160,10414
0.707807,1775669478.719505,599616028782136160,10955
0.715499,1775669478.719505,599616028782136160,14028
0.723192,1775669478.719505,599616028782136160,8374
0.730884,1775669478.719505,599616028782136160,13262
0.738576,1775669478.719505,599616028782136160,10999
0.746269,1775669478.719505,599616028782136160,9184
0.753961,1775669478.719505,599616028782136160,14109
0.761653,1775669478.719505,599616028782136160,8516
0.769346,1775669478.719505,599616028782136160,12002
0.777038,1775669478.719505,599616028782136160,12243
0.784730,1775669478.719505,599616028782136160,7699
0.792422,1775669478.719505,599616028782136160,13331
0.800115,1775669478.719505,599616028782136160,8934
0.807807,1775669478.719505,599616028782136160,9792
0.815499,1775669478.719505,599616028782136160,12709
0.823192,1775669478.719505,599616028782136160,7098
0.830884,1775669478.719505,599616028782136160,12287
0.838576,1775669478.719505,599616028782136160,9918
0.846269,1775669478.719505,599616028782136160,7951
0.853961,1775669478.719505,599616028782136160,12863
0.861653,1775669478.719505,599616028782136160,7150
0.869346,1775669478.719505,599616028782136160,10492
0.877038,1775669478.719505,599616028782136160,10783
0.884730,1775669478.719505,599616028782136160,6393
0.892422,1775669478.719505,599616028782136160,12101
0.900115,1775669478.719505,599616028782136160,7724
0.907807,1775669478.719505,599616028782136160,8468
0.915499,1775669478.719505,599616028782136160,11440
0.923192,1775669478.719505,599616028782136160,6024
0.930884,1775669478.719505,599616028782136160,11178
0.938576,1775669478.719505,599616028782136160,8908
0.946269,1775669478.719505,599616028782136160,6976
0.953961,1775669478.719505,599616028782136160,11665
0.961653,1775669478.719505,599616028782136160,6003
0.969346,1775669478.719505,599616028782136160,9487
0.977038,1775669478.719505,599616028782136160,9976
0.984730,1775669478.719505,599616028782136160,5925
0.992422,1775669478.719505,599616028782136160,11584
1.000115,1775669478.719505,599616028782136160,7072
1.007807,1775669478.719505,599616028782136160,7903
1.015499,1775669478.719505,599616028782136160,10815
1.023192,1775669478.719505,599616028782136160,5276
1.030884,1775669478.719505,599616028782136160,10391
1.038576,1775669478.719505,599616028782136160,8124
1.046269,1775669478.719505,599616028782136160,6331
1.053961,1775669478.719505,599616028782136160,11141
1.061653,1775669478.719505,599616028782136160,5315
1.069345,1775669478.719505,599616028782136160,8603
1.077038,1775669478.719505,599616028782136160,9147
1.084730,1775669478.719505,599616028782136160,5154
1.092422,1775669478.719505,599616028782136160,10542
1.100115,1775669478.719505,599616028782136160,5875
1.107807,1775669478.719505,599616028782136160,7015
1.115499,1775669478.719505,599616028782136160,10033
1.123322,1775669479.303497,599616029343804690,4289
1.131014,1775669479.303497,599616029343804690,9317
1.138706,1775669479.303497,599616029343804690,7001
1.146399,1775669479.303497,599616029343804690,5106
1.154091,1775669479.303497,599616029343804690,9957
1.161783,1775669479.303497,599616029343804690,4394
1.169476,1775669479.303497,599616029343804690,7708
1.177168,1775669479.303497,599616029343804690,8041
1.184860,1775669479.303497,599616029343804690,4176
1.192553,1775669479.303497,599616029343804690,9879
1.200245,1775669479.303497,599616029343804690,5168
1.207937,1775669479.303497,599616029343804690,6072
1.215629,1775669479.303497,599616029343804690,9175
1.223322,1775669479.303497,599616029343804690,3720
1.231014,1775669479.303497,599616029343804690,8819
1.238706,1775669479.303497,599616029343804690,6451
1.246399,1775669479.303497,599616029343804690,4566
1.254091,1775669479.303497,599616029343804690,9471
1.261783,1775669479.303497,599616029343804690,4101
1.269476,1775669479.303497,599616029343804690,7543
1.277168,1775669479.303497,599616029343804690,7747
1.284860,1775669479.303497,599616029343804690,3733
1.292552,1775669479.303497,599616029343804690,9342
1.300245,1775669479.303497,599616029343804690,4739
1.307937,1775669479.303497,599616029343804690,5835
1.315629,1775669479.303497,599616029343804690,8734
1.323322,1775669479.303497,599616029343804690,3054
1.331014,1775669479.303497,599616029343804690,8247
1.338706,1775669479.303497,599616029343804690,5953
1.346399,1775669479.303497,599616029343804690,4089
1.354091,1775669479.303497,599616029343804690,8846
1.361783,1775669479.303497,599616029343804690,3371
1.369476,1775669479.303497,599616029343804690,6994
1.377168,1775669479.303497,599616029343804690,7150
1.384860,1775669479.303497,599616029343804690,2953
1.392552,1775669479.303497,599616029343804690,8649
1.400245,1775669479.303497,599616029343804690,4231
1.407937,1775669479.303497,599616029343804690,5402
1.415629,1775669479.303497,599616029343804690,8202
1.423322,1775669479.303497,599616029343804690,2529
1.431014,1775669479.303497,599616029343804690,7862
1.438706,1775669479.303497,599616029343804690,5549
1.446399,1775669479.303497,599616029343804690,3759
1.454091,1775669479.303497,599616029343804690,8548
1.461783,1775669479.303497,599616029343804690,2836
1.469476,1775669479.303497,599616029343804690,6340
1.477168,1775669479.303497,599616029343804690,6630
1.484860,1775669479.303497,599616029343804690,2586
1.492553,1775669479.303497,599616029343804690,8197
1.500245,1775669479.303497,599616029343804690,3664
1.507937,1775669479.303497,599616029343804690,4803
1.515629,1775669479.303497,599616029343804690,7646
1.523322,1775669479.303497,599616029343804690,2122
1.531014,1775669479.303497,599616029343804690,7279
1.538706,1775669479.303497,599616029343804690,4977
1.546399,1775669479.303497,599616029343804690,3685
1.554091,1775669479.303497,599616029343804690,8353
1.561783,1775669479.303497,599616029343804690,2111
1.569476,1775669479.303497,599616029343804690,5590
1.577168,1775669479.303497,599616029343804690,5943
1.584860,1775669479.303497,599616029343804690,1969
1.592553,1775669479.303497,599616029343804690,7724
1.600245,1775669479.303497,599616029343804690,3098
1.607937,1775669479.303497,599616029343804690,4105
1.615629,1775669479.303497,599616029343804690,6967
1.623322,1775669479.303497,599616029343804690,1498
1.631014,1775669479.303497,599616029343804690,6600
1.638706,1775669479.303497,599616029343804690,4156
1.646399,1775669479.303497,599616029343804690,2675
1.654091,1775669479.303497,599616029343804690,7499
1.661783,1775669479.303497,599616029343804690,1751
1.669476,1775669479.303497,599616029343804690,5168
1.677168,1775669479.303497,599616029343804690,5289
1.685011,1775669479.844630,599616029905493566,1505
1.692703,1775669479.844630,599616029905493566,7302
1.700395,1775669479.844630,599616029905493566,2613
1.708087,1775669479.844630,599616029905493566,3768
1.715780,1775669479.844630,599616029905493566,6680
1.723472,1775669479.844630,599616029905493566,1450
1.731164,1775669479.844630,599616029905493566,6758
1.738857,1775669479.844630,599616029905493566,3795
1.746549,1775669479.844630,599616029905493566,2051
1.754241,1775669479.844630,599616029905493566,7157
1.761934,1775669479.844630,599616029905493566,1526
1.769626,1775669479.844630,599616029905493566,5046
1.777318,1775669479.844630,599616029905493566,5158
1.785011,1775669479.844630,599616029905493566,1381
1.792703,1775669479.844630,599616029905493566,7075
1.800395,1775669479.844630,599616029905493566,1913
1.808087,1775669479.844630,599616029905493566,3102
1.815780,1775669479.844630,599616029905493566,6143
1.823472,1775669479.844630,599616029905493566,539
1.831164,1775669479.844630,599616029905493566,5987
1.838857,1775669479.844630,599616029905493566,3612
1.846549,1775669479.844630,599616029905493566,1881
1.854241,1775669479.844630,599616029905493566,6643
1.861934,1775669479.844630,599616029905493566,1099
1.869626,1775669479.844630,599616029905493566,4750
1.877318,1775669479.844630,599616029905493566,4700
1.885010,1775669479.844630,599616029905493566,688
1.892703,1775669479.844630,599616029905493566,6393
1.900395,1775669479.844630,599616029905493566,1909
1.908087,1775669479.844630,599616029905493566,3355
1.915780,1775669479.844630,599616029905493566,5934
1.923472,1775669479.844630,599616029905493566,254
1.931164,1775669479.844630,599616029905493566,5746
1.938857,1775669479.844630,599616029905493566,3327
1.946549,1775669479.844630,599616029905493566,1624
1.954241,1775669479.844630,599616029905493566,6333
1.961934,1775669479.844630,599616029905493566,851
1.969626,1775669479.844630,599616029905493566,4709
1.977318,1775669479.844630,599616029905493566,4812
1.985011,1775669479.844630,599616029905493566,766
1.992703,1775669479.844630,599616029905493566,6306
2.000395,1775669479.844630,599616029905493566,1675
2.008087,1775669479.844630,599616029905493566,2873
2.015780,1775669479.844630,599616029905493566,5457
2.023472,1775669479.844630,599616029905493566,29
2.031164,1775669479.844630,599616029905493566,5305
2.038857,1775669479.844630,599616029905493566,2742
2.046549,1775669479.844630,599616029905493566,1443
2.054241,1775669479.844630,599616029905493566,6235
2.061934,1775669479.844630,599616029905493566,358
2.069626,1775669479.844630,599616029905493566,3961
2.077318,1775669479.844630,599616029905493566,4179
2.085011,1775669479.844630,599616029905493566,548
2.092703,1775669479.844630,599616029905493566,6200
2.100395,1775669479.844630,599616029905493566,1312
2.108087,1775669479.844630,599616029905493566,2629
2.115780,1775669479.844630,599616029905493566,5434
2.123472,1775669479.844630,599616029905493566,-100
2.131164,1775669479.844630,599616029905493566,5087
2.138857,1775669479.844630,599616029905493566,2526
2.146549,1775669479.844630,599616029905493566,1064
2.154241,1775669479.844630,599616029905493566,5767
2.161934,1775669479.844630,599616029905493566,75
2.169626,1775669479.844630,599616029905493566,3671
2.177318,1775669479.844630,599616029905493566,3731
2.185011,1775669479.844630,599616029905493566,87
2.192703,1775669479.844630,599616029905493566,5824
2.200395,1775669479.844630,599616029905493566,1062
2.208087,1775669479.844630,599616029905493566,2258
2.215780,1775669479.844630,599616029905493566,4901
2.223472,1775669479.844630,599616029905493566,-504
2.231164,1775669479.844630,599616029905493566,4729
2.238857,1775669479.844630,599616029905493566,2131
2.246700,1775669480.382394,599616030467182442,839
2.254392,1775669480.382394,599616030467182442,5748
2.262084,1775669480.382394,599616030467182442,364
2.269776,1775669480.382394,599616030467182442,4153
2.277469,1775669480.382394,599616030467182442,3740
2.285161,1775669480.382394,599616030467182442,-126
2.292853,1775669480.382394,599616030467182442,5845
2.300546,1775669480.382394,599616030467182442,828
2.308238,1775669480.382394,599616030467182442,2017
2.315930,1775669480.382394,599616030467182442,4966
2.323623,1775669480.382394,599616030467182442,-465
2.331315,1775669480.382394,599616030467182442,4796
2.339007,1775669480.382394,599616030467182442,2170
2.346700,1775669480.382394,599616030467182442,605
2.354392,1775669480.382394,599616030467182442,5230
2.362084,1775669480.382394,599616030467182442,-323
2.369776,1775669480.382394,599616030467182442,3479
2.377469,1775669480.382394,599616030467182442,3424
2.385161,1775669480.382394,599616030467182442,-403
2.392853,1775669480.382394,599616030467182442,5259
2.400546,1775669480.382394,599616030467182442,585
2.408238,1775669480.382394,599616030467182442,1884
2.415930,1775669480.382394,599616030467182442,4530
2.423623,1775669480.382394,599616030467182442,-807
2.431315,1775669480.382394,599616030467182442,4353
2.439007,1775669480.382394,599616030467182442,1746
2.446700,1775669480.382394,599616030467182442,594
2.454392,1775669480.382394,599616030467182442,5113
2.462084,1775669480.382394,599616030467182442,-798
2.469777,1775669480.382394,599616030467182442,3102
2.477469,1775669480.382394,599616030467182442,3185
2.485161,1775669480.382394,599616030467182442,-713
2.492853,1775669480.382394,599616030467182442,4913
2.500546,1775669480.382394,599616030467182442,291
2.508238,1775669480.382394,599616030467182442,1638
2.515930,1775669480.382394,599616030467182442,4254
2.523623,1775669480.382394,599616030467182442,-931
2.531315,1775669480.382394,599616030467182442,4341
2.539007,1775669480.382394,599616030467182442,1415
2.546700,1775669480.382394,599616030467182442,61
2.554392,1775669480.382394,599616030467182442,4800
2.562084,1775669480.382394,599616030467182442,-959
2.569776,1775669480.382394,599616030467182442,2786
2.577469,1775669480.382394,599616030467182442,2799
2.585161,1775669480.382394,599616030467182442,-931
2.592853,1775669480.382394,599616030467182442,4759
2.600546,1775669480.382394,599616030467182442,176
2.608238,1775669480.382394,599616030467182442,1555
2.615930,1775669480.382394,599616030467182442,4032
2.623623,1775669480.382394,599616030467182442,-1067
2.631315,1775669480.382394,599616030467182442,4401
2.639007,1775669480.382394,599616030467182442,1367
2.646700,1775669480.382394,599616030467182442,87
2.654392,1775669480.382394,599616030467182442,5037
2.662084,1775669480.382394,599616030467182442,-745
2.669776,1775669480.382394,599616030467182442,2926
2.677469,1775669480.382394,599616030467182442,2891
2.685161,1775669480.382394,599616030467182442,-888
2.692853,1775669480.382394,599616030467182442,4651
2.700546,1775669480.382394,599616030467182442,-27
2.708238,1775669480.382394,599616030467182442,1427
2.715930,1775669480.382394,599616030467182442,3954
2.723623,1775669480.382394,599616030467182442,-1280
2.731315,1775669480.382394,599616030467182442,4098
2.739007,1775669480.382394,599616030467182442,1386
2.746700,1775669480.382394,599616030467182442,112
2.754392,1775669480.382394,599616030467182442,4702
2.762084,1775669480.382394,599616030467182442,-934
2.769776,1775669480.382394,599616030467182442,2875
2.777469,1775669480.382394,599616030467182442,2740
2.785161,1775669480.382394,599616030467182442,-796
2.792853,1775669480.382394,599616030467182442,4819
2.800546,1775669480.382394,599616030467182442,-18
2.808358,1775669480.922498,599616031028840800,1709
2.816050,1775669480.922498,599616031028840800,4160
2.823742,1775669480.922498,599616031028840800,-1583
2.831435,1775669480.922498,599616031028840800,3740
2.839127,1775669480.922498,599616031028840800,1131
2.846819,1775669480.922498,599616031028840800,-156
2.854512,1775669480.922498,599616031028840800,4397
2.862204,1775669480.922498,599616031028840800,-1246
2.869896,1775669480.922498,599616031028840800,2632
2.877589,1775669480.922498,599616031028840800,2455
2.885281,1775669480.922498,599616031028840800,-1312
2.892973,1775669480.922498,599616031028840800,4213
2.900666,1775669480.922498,599616031028840800,-534
2.908358,1775669480.922498,599616031028840800,1062
2.916050,1775669480.922498,599616031028840800,3628
2.923742,1775669480.922498,599616031028840800,-1576
2.931435,1775669480.922498,599616031028840800,3811
2.939127,1775669480.922498,599616031028840800,869
2.946819,1775669480.922498,599616031028840800,-346
2.954512,1775669480.922498,599616031028840800,4319
2.962204,1775669480.922498,599616031028840800,-1438
2.969896,1775669480.922498,599616031028840800,2551
2.977589,1775669480.922498,599616031028840800,2425
2.985281,1775669480.922498,599616031028840800,-1035
2.992973,1775669480.922498,599616031028840800,4800
3.000666,1775669480.922498,599616031028840800,-374
3.008358,1775669480.922498,599616031028840800,1195
3.016050,1775669480.922498,599616031028840800,3754
3.023742,1775669480.922498,599616031028840800,-1716
3.031435,1775669480.922498,599616031028840800,4034
3.039127,1775669480.922498,599616031028840800,1230
3.046819,1775669480.922498,599616031028840800,353
3.054512,1775669480.922498,599616031028840800,4844
3.062204,1775669480.922498,599616031028840800,-1760
3.069896,1775669480.922498,599616031028840800,2965
3.077589,1775669480.922498,599616031028840800,2549
3.085281,1775669480.922498,599616031028840800,-1682
3.092973,1775669480.922498,599616031028840800,5131
3.100665,1775669480.922498,599616031028840800,-509
3.108358,1775669480.922498,599616031028840800,1135
3.116050,1775669480.922498,599616031028840800,4268
3.123742,1775669480.922498,599616031028840800,-1861
3.131435,1775669480.922498,599616031028840800,4520
3.139127,1775669480.922498,599616031028840800,1014
3.146819,1775669480.922498,599616031028840800,-539
3.154512,1775669480.922498,599616031028840800,5055
3.162204,1775669480.922498,599616031028840800,-1712
3.169896,1775669480.922498,599616031028840800,3382
3.177589,1775669480.922498,599616031028840800,2898
3.185281,1775669480.922498,599616031028840800,-1888
3.192973,1775669480.922498,599616031028840800,5521
3.200665,1775669480.922498,599616031028840800,-500
3.208358,1775669480.922498,599616031028840800,1340
3.216050,1775669480.922498,599616031028840800,4500
3.223742,1775669480.922498,599616031028840800,-2423
3.231435,1775669480.922498,599616031028840800,4667
3.239127,1775669480.922498,599616031028840800,1025
3.246819,1775669480.922498,599616031028840800,-679
3.254512,1775669480.922498,599616031028840800,5331
3.262204,1775669480.922498,599616031028840800,-2219
3.269896,1775669480.922498,599616031028840800,3125
3.277589,1775669480.922498,599616031028840800,2588
3.285281,1775669480.922498,599616031028840800,-2717
3.292973,1775669480.922498,599616031028840800,5005
3.300665,1775669480.922498,599616031028840800,-1539
3.308358,1775669480.922498,599616031028840800,881
3.316050,1775669480.922498,599616031028840800,4631
3.323742,1775669480.922498,599616031028840800,-3063
3.331435,1775669480.922498,599616031028840800,4243
3.339127,1775669480.922498,599616031028840800,631
3.346819,1775669480.922498,599616031028840800,-821
3.354512,1775669480.922498,599616031028840800,5386
3.362204,1775669480.922498,599616031028840800,-3029
3.370011,1775669481.553362,599616031590494074,2767
3.377703,1775669481.553362,599616031590494074,2841
3.385396,1775669481.553362,599616031590494074,-2306
3.393088,1775669481.553362,599616031590494074,5693
3.400780,1775669481.553362,599616031590494074,-1489
3.408473,1775669481.553362,599616031590494074,743
3.416165,1775669481.553362,599616031590494074,4589
3.423857,1775669481.553362,599616031590494074,-3086
3.431550,1775669481.553362,599616031590494074,4500
3.439242,1775669481.553362,599616031590494074,353
3.446934,1775669481.553362,599616031590494074,-1273
3.454626,1775669481.553362,599616031590494074,5427
3.462319,1775669481.553362,599616031590494074,-2916
3.470011,1775669481.553362,599616031590494074,2772
3.477703,1775669481.553362,599616031590494074,2448
3.485396,1775669481.553362,599616031590494074,-2781
3.493088,1775669481.553362,599616031590494074,5629
3.500780,1775669481.553362,599616031590494074,-1480
3.508473,1775669481.553362,599616031590494074,764
3.516165,1775669481.553362,599616031590494074,4408
3.523857,1775669481.553362,599616031590494074,-3105
3.531550,1775669481.553362,599616031590494074,4984
3.539242,1775669481.553362,599616031590494074,229
3.546934,1775669481.553362,599616031590494074,-1689
3.554626,1775669481.553362,599616031590494074,5457
3.562319,1775669481.553362,599616031590494074,-2898
3.570011,1775669481.553362,599616031590494074,2843
3.577703,1775669481.553362,599616031590494074,2503
3.585396,1775669481.553362,599616031590494074,-2981
3.593088,1775669481.553362,599616031590494074,5340
3.600780,1775669481.553362,599616031590494074,-1659
3.608473,1775669481.553362,599616031590494074,658
3.616165,1775669481.553362,599616031590494074,4144
3.623857,1775669481.553362,599616031590494074,-3566
3.631549,1775669481.553362,599616031590494074,4608
3.639242,1775669481.553362,599616031590494074,243
3.646934,1775669481.553362,599616031590494074,-1647
3.654626,1775669481.553362,599616031590494074,5028
3.662319,1775669481.553362,599616031590494074,-3238
3.670011,1775669481.553362,599616031590494074,2992
3.677703,1775669481.553362,599616031590494074,2506
3.685396,1775669481.553362,599616031590494074,-3088
3.693088,1775669481.553362,599616031590494074,5418
3.700780,1775669481.553362,599616031590494074,-1654
3.708473,1775669481.553362,599616031590494074,722
3.716165,1775669481.553362,599616031590494074,4153
3.723857,1775669481.553362,599616031590494074,-3816
3.731550,1775669481.553362,599616031590494074,4371
3.739242,1775669481.553362,599616031590494074,75
3.746934,1775669481.553362,599616031590494074,-1748
3.754626,1775669481.553362,599616031590494074,4750
3.762319,1775669481.553362,599616031590494074,-3765
3.770011,1775669481.553362,599616031590494074,2652
3.777703,1775669481.553362,599616031590494074,2212
3.785396,1775669481.553362,599616031590494074,-3417
3.793088,1775669481.553362,599616031590494074,5149
3.800780,1775669481.553362,599616031590494074,-1895
3.808473,1775669481.553362,599616031590494074,807
3.816165,1775669481.553362,599616031590494074,4202
3.823857,1775669481.553362,599616031590494074,-3926
3.831550,1775669481.553362,599616031590494074,4433
3.839242,1775669481.553362,599616031590494074,-68
3.846934,1775669481.553362,599616031590494074,-1654
3.854626,1775669481.553362,599616031590494074,5310
3.862319,1775669481.553362,599616031590494074,-3655
3.870011,1775669481.553362,599616031590494074,2483
3.877703,1775669481.553362,599616031590494074,2274
3.885396,1775669481.553362,599616031590494074,-3098
3.893088,1775669481.553362,599616031590494074,5399
3.900780,1775669481.553362,599616031590494074,-2164
3.908473,1775669481.553362,599616031590494074,472
3.916165,1775669481.553362,599616031590494074,4110
3.923857,1775669481.553362,599616031590494074,-3931
3.931664,1775669482.094636,599616032152147346,4532
3.939357,1775669482.094636,599616032152147346,16
3.947049,1775669482.094636,599616032152147346,-1572
3.954741,1775669482.094636,599616032152147346,5436
3.962434,1775669482.094636,599616032152147346,-3442
3.970126,1775669482.094636,599616032152147346,2687
3.977818,1775669482.094636,599616032152147346,2182
3.985510,1775669482.094636,599616032152147346,-3082
3.993203,1775669482.094636,599616032152147346,5705
4.000895,1775669482.094636,599616032152147346,-1987
4.008587,1775669482.094636,599616032152147346,745
4.016280,1775669482.094636,599616032152147346,4197
4.023972,1775669482.094636,599616032152147346,-4034
4.031664,1775669482.094636,599616032152147346,4821
4.039357,1775669482.094636,599616032152147346,-110
4.047049,1775669482.094636,599616032152147346,-2111
4.054741,1775669482.094636,599616032152147346,5246
4.062434,1775669482.094636,599616032152147346,-3433
4.070126,1775669482.094636,599616032152147346,2802
4.077818,1775669482.094636,599616032152147346,2157
4.085510,1775669482.094636,599616032152147346,-3309
4.093203,1775669482.094636,599616032152147346,5606
4.100895,1775669482.094636,599616032152147346,-2005
4.108587,1775669482.094636,599616032152147346,640
4.116280,1775669482.094636,599616032152147346,4243
4.123972,1775669482.094636,599616032152147346,-3878
4.131664,1775669482.094636,599616032152147346,4787
4.139357,1775669482.094636,599616032152147346,84
4.147049,1775669482.094636,599616032152147346,-1689
4.154741,1775669482.094636,599616032152147346,5250
4.162434,1775669482.094636,599616032152147346,-3609
4.170126,1775669482.094636,599616032152147346,2847
4.177818,1775669482.094636,599616032152147346,2159
4.185511,1775669482.094636,599616032152147346,-3371
4.193203,1775669482.094636,599616032152147346,5450
4.200895,1775669482.094636,599616032152147346,-2347
4.208587,1775669482.094636,599616032152147346,605
4.216280,1775669482.094636,599616032152147346,4323
4.223972,1775669482.094636,599616032152147346,-4036
4.231664,1775669482.094636,599616032152147346,4766
4.239357,1775669482.094636,599616032152147346,185
4.247049,1775669482.094636,599616032152147346,-1441
4.254741,1775669482.094636,599616032152147346,5549
4.262434,1775669482.094636,599616032152147346,-3502
4.270126,1775669482.094636,599616032152147346,3004
4.277818,1775669482.094636,599616032152147346,2262
4.285510,1775669482.094636,599616032152147346,-3341
4.293203,1775669482.094636,599616032152147346,5615
4.300895,1775669482.094636,599616032152147346,-1980
4.308587,1775669482.094636,599616032152147346,1119
4.316280,1775669482.094636,599616032152147346,4445
4.323972,1775669482.094636,599616032152147346,-4254
4.331664,1775669482.094636,599616032152147346,4626
4.339357,1775669482.094636,599616032152147346,-80
4.347049,1775669482.094636,599616032152147346,-1773
4.354741,1775669482.094636,599616032152147346,5278
4.362434,1775669482.094636,599616032152147346,-3743
4.370126,1775669482.094636,599616032152147346,2834
4.377818,1775669482.094636,599616032152147346,1985
4.385510,1775669482.094636,599616032152147346,-3612
4.393203,1775669482.094636,599616032152147346,5457
4.400895,1775669482.094636,599616032152147346,-2574
4.408587,1775669482.094636,599616032152147346,57
4.416280,1775669482.094636,599616032152147346,3807
4.423972,1775669482.094636,599616032152147346,-4289
4.431664,1775669482.094636,599616032152147346,4399
4.439357,1775669482.094636,599616032152147346,-518
4.447049,1775669482.094636,599616032152147346,-2031
4.454741,1775669482.094636,599616032152147346,5035
4.462434,1775669482.094636,599616032152147346,-4075
4.470126,1775669482.094636,599616032152147346,2473
4.477818,1775669482.094636,599616032152147346,1783
4.485510,1775669482.094636,599616032152147346,-3811
4.493348,1775669482.634284,599616032713831136,4846
4.501040,1775669482.634284,599616032713831136,-3027
4.508733,1775669482.634284,599616032713831136,220
4.516425,1775669482.634284,599616032713831136,3912
4.524117,1775669482.634284,599616032713831136,-4477
4.531810,1775669482.634284,599616032713831136,4270
4.539502,1775669482.634284,599616032713831136,-624
4.547194,1775669482.634284,599616032713831136,-2187
4.554887,1775669482.634284,599616032713831136,4805
4.562579,1775669482.634284,599616032713831136,-4238
4.570271,1775669482.634284,599616032713831136,2554
4.577964,1775669482.634284,599616032713831136,1700
4.585656,1775669482.634284,599616032713831136,-4011
4.593348,1775669482.634284,599616032713831136,4996
4.601040,1775669482.634284,599616032713831136,-2825
4.608733,1775669482.634284,599616032713831136,-6
4.616425,1775669482.634284,599616032713831136,3515
4.624117,1775669482.634284,599616032713831136,-4750
4.631810,1775669482.634284,599616032713831136,3905
4.639502,1775669482.634284,599616032713831136,-917
4.647194,1775669482.634284,599616032713831136,-2327
4.654887,1775669482.634284,599616032713831136,4656
4.662579,1775669482.634284,599616032713831136,-4371
4.670271,1775669482.634284,599616032713831136,2216
4.677964,1775669482.634284,599616032713831136,1459
4.685656,1775669482.634284,599616032713831136,-3951
4.693348,1775669482.634284,599616032713831136,4775
4.701041,1775669482.634284,599616032713831136,-3164
4.708733,1775669482.634284,599616032713831136,-13
4.716425,1775669482.634284,599616032713831136,3577
4.724117,1775669482.634284,599616032713831136,-4525
4.731810,1775669482.634284,599616032713831136,4442
4.739502,1775669482.634284,599616032713831136,-511
4.747194,1775669482.634284,599616032713831136,-1996
4.754887,1775669482.634284,599616032713831136,5106
4.762579,1775669482.634284,599616032713831136,-3974
4.770271,1775669482.634284,599616032713831136,2572
4.777964,1775669482.634284,599616032713831136,1868
4.785656,1775669482.634284,599616032713831136,-3180
4.793348,1775669482.634284,599616032713831136,5675
4.801041,1775669482.634284,599616032713831136,-2799
4.808733,1775669482.634284,599616032713831136,222
4.816425,1775669482.634284,599616032713831136,3710
4.824117,1775669482.634284,599616032713831136,-4784
4.831810,1775669482.634284,599616032713831136,4332
4.839502,1775669482.634284,599616032713831136,-550
4.847194,1775669482.634284,599616032713831136,-2288
4.854887,1775669482.634284,599616032713831136,4736
4.862579,1775669482.634284,599616032713831136,-4215
4.870271,1775669482.634284,599616032713831136,2283
4.877964,1775669482.634284,599616032713831136,1266
4.885656,1775669482.634284,599616032713831136,-4016
4.893348,1775669482.634284,599616032713831136,4906
4.901041,1775669482.634284,599616032713831136,-3121
4.908733,1775669482.634284,599616032713831136,-149
4.916425,1775669482.634284,599616032713831136,3054
4.924117,1775669482.634284,599616032713831136,-5158
4.931810,1775669482.634284,599616032713831136,3993
4.939502,1775669482.634284,599616032713831136,-924
4.947194,1775669482.634284,599616032713831136,-2414
4.954887,1775669482.634284,599616032713831136,4555
4.962579,1775669482.634284,599616032713831136,-4344
4.970271,1775669482.634284,599616032713831136,2453
4.977964,1775669482.634284,599616032713831136,1473
4.985656,1775669482.634284,599616032713831136,-3843
4.993348,1775669482.634284,599616032713831136,4968
5.001040,1775669482.634284,599616032713831136,-3215
5.008733,1775669482.634284,599616032713831136,-57
5.016425,1775669482.634284,599616032713831136,3522
5.024117,1775669482.634284,599616032713831136,-4677
5.031810,1775669482.634284,599616032713831136,4098
5.039502,1775669482.634284,599616032713831136,-856
5.047194,1775669482.634284,599616032713831136,-2223
5.055022,1775669483.218108,599616033275504752,4447
5.062714,1775669483.218108,599616033275504752,-4656
5.070406,1775669483.218108,599616033275504752,2214
5.078099,1775669483.218108,599616033275504752,1204
5.085791,1775669483.218108,599616033275504752,-4268
5.093483,1775669483.218108,599616033275504752,4452
5.101176,1775669483.218108,599616033275504752,-3485
5.108868,1775669483.218108,599616033275504752,-11
5.116560,1775669483.218108,599616033275504752,3407
5.124253,1775669483.218108,599616033275504752,-5012
5.131945,1775669483.218108,599616033275504752,3887
5.139637,1775669483.218108,599616033275504752,-888
5.147330,1775669483.218108,599616033275504752,-2129
5.155022,1775669483.218108,599616033275504752,4621
5.162714,1775669483.218108,599616033275504752,-4543
5.170406,1775669483.218108,599616033275504752,2166
5.178099,1775669483.218108,599616033275504752,1271
5.185791,1775669483.218108,599616033275504752,-3830
5.193483,1775669483.218108,599616033275504752,4986
5.201176,1775669483.218108,599616033275504752,-3162
5.208868,1775669483.218108,599616033275504752,-64
5.216560,1775669483.218108,599616033275504752,3256
5.224253,1775669483.218108,599616033275504752,-4892
5.231945,1775669483.218108,599616033275504752,3713
5.239637,1775669483.218108,599616033275504752,-1390
5.247330,1775669483.218108,599616033275504752,-2177
5.255022,1775669483.218108,599616033275504752,4865
5.262714,1775669483.218108,599616033275504752,-4420
5.270406,1775669483.218108,599616033275504752,2205
5.278099,1775669483.218108,599616033275504752,1012
5.285791,1775669483.218108,599616033275504752,-4277
5.293483,1775669483.218108,599616033275504752,4617
5.301176,1775669483.218108,599616033275504752,-3582
5.308868,1775669483.218108,599616033275504752,-403
5.316560,1775669483.218108,599616033275504752,2790
5.324253,1775669483.218108,599616033275504752,-5230
5.331945,1775669483.218108,599616033275504752,4114
5.339637,1775669483.218108,599616033275504752,-1147
5.347329,1775669483.218108,599616033275504752,-2577
5.355022,1775669483.218108,599616033275504752,4481
5.362714,1775669483.218108,599616033275504752,-4525
5.370407,1775669483.218108,599616033275504752,2053
5.378099,1775669483.218108,599616033275504752,670
5.385791,1775669483.218108,599616033275504752,-4470
5.393483,1775669483.218108,599616033275504752,4615
5.401176,1775669483.218108,599616033275504752,-3435
5.408868,1775669483.218108,599616033275504752,-114
5.416560,1775669483.218108,599616033275504752,3038
5.424253,1775669483.218108,599616033275504752,-5108
5.431945,1775669483.218108,599616033275504752,4039
5.439637,1775669483.218108,599616033275504752,-1186
5.447330,1775669483.218108,599616033275504752,-2455
5.455022,1775669483.218108,599616033275504752,4364
5.462714,1775669483.218108,599616033275504752,-4640
5.470406,1775669483.218108,599616033275504752,2336
5.478099,1775669483.218108,599616033275504752,952
5.485791,1775669483.218108,599616033275504752,-4302
5.493483,1775669483.218108,599616033275504752,4761
5.501176,1775669483.218108,599616033275504752,-3366
5.508868,1775669483.218108,599616033275504752,-151
5.516560,1775669483.218108,599616033275504752,3006
5.524253,1775669483.218108,599616033275504752,-5032
5.531945,1775669483.218108,599616033275504752,3910
5.539637,1775669483.218108,599616033275504752,-1347
5.547330,1775669483.218108,599616033275504752,-2446
5.555022,1775669483.218108,599616033275504752,4206
5.562714,1775669483.218108,599616033275504752,-4915
5.570406,1775669483.218108,599616033275504752,2088
5.578099,1775669483.218108,599616033275504752,867
5.585791,1775669483.218108,599616033275504752,-4367
5.593483,1775669483.218108,599616033275504752,4328
5.601176,1775669483.218108,599616033275504752,-3683
5.608868,1775669483.218108,599616033275504752,-66
5.616685,1775669483.759765,599616033837168198,3045
5.624377,1775669483.759765,599616033837168198,-5168
5.632070,1775669483.759765,599616033837168198,3646
5.639762,1775669483.759765,599616033837168198,-1583
5.647455,1775669483.759765,599616033837168198,-2363
5.655147,1775669483.759765,599616033837168198,4477
5.662839,1775669483.759765,599616033837168198,-4851
5.670531,1775669483.759765,599616033837168198,1980
5.678224,1775669483.759765,599616033837168198,1016
5.685916,1775669483.759765,599616033837168198,-3775
5.693608,1775669483.759765,599616033837168198,4810
5.701301,1775669483.759765,599616033837168198,-3694
5.708993,1775669483.759765,599616033837168198,-139
5.716685,1775669483.759765,599616033837168198,3183
5.724378,1775669483.759765,599616033837168198,-4766
5.732070,1775669483.759765,599616033837168198,4052
5.739762,1775669483.759765,599616033837168198,-1505
5.747455,1775669483.759765,599616033837168198,-2368
5.755147,1775669483.759765,599616033837168198,4752
5.762839,1775669483.759765,599616033837168198,-4254
5.770531,1775669483.759765,599616033837168198,2200
5.778224,1775669483.759765,599616033837168198,546
5.785916,1775669483.759765,599616033837168198,-4039
5.793608,1775669483.759765,599616033837168198,5103
5.801301,1775669483.759765,599616033837168198,-3437
5.808993,1775669483.759765,599616033837168198,-289
5.816685,1775669483.759765,599616033837168198,2852
5.824378,1775669483.759765,599616033837168198,-4908
5.832070,1775669483.759765,599616033837168198,3853
5.839762,1775669483.759765,599616033837168198,-1985
5.847454,1775669483.759765,599616033837168198,-2919
5.855147,1775669483.759765,599616033837168198,4000
5.862839,1775669483.759765,599616033837168198,-5018
5.870531,1775669483.759765,599616033837168198,1872
5.878224,1775669483.759765,599616033837168198,447
5.885916,1775669483.759765,599616033837168198,-4491
5.893608,1775669483.759765,599616033837168198,4360
5.901301,1775669483.759765,599616033837168198,-3775
5.908993,1775669483.759765,599616033837168198,-369
5.916685,1775669483.759765,599616033837168198,2703
5.924378,1775669483.759765,599616033837168198,-4915
5.932070,1775669483.759765,599616033837168198,4050
5.939762,1775669483.759765,599616033837168198,-1498
5.947454,1775669483.759765,599616033837168198,-2570
5.955147,1775669483.759765,599616033837168198,3527
5.962839,1775669483.759765,599616033837168198,-5725
5.970531,1775669483.759765,599616033837168198,1558
5.978224,1775669483.759765,599616033837168198,25
5.985916,1775669483.759765,599616033837168198,-4966
5.993608,1775669483.759765,599616033837168198,4128
6.001301,1775669483.759765,599616033837168198,-4112
6.008993,1775669483.759765,599616033837168198,-890
6.016685,1775669483.759765,599616033837168198,2049
6.024378,1775669483.759765,599616033837168198,-5714
6.032070,1775669483.759765,599616033837168198,3235
6.039762,1775669483.759765,599616033837168198,-2010
6.047454,1775669483.759765,599616033837168198,-2717
6.055147,1775669483.759765,599616033837168198,3724
6.062839,1775669483.759765,599616033837168198,-5266
6.070531,1775669483.759765,599616033837168198,1767
6.078224,1775669483.759765,599616033837168198,204
6.085916,1775669483.759765,599616033837168198,-4670
6.093608,1775669483.759765,599616033837168198,4082
6.101301,1775669483.759765,599616033837168198,-4075
6.108993,1775669483.759765,599616033837168198,-582
6.116685,1775669483.759765,599616033837168198,2265
6.124377,1775669483.759765,599616033837168198,-5533
6.132070,1775669483.759765,599616033837168198,3100
6.139762,1775669483.759765,599616033837168198,-2551
6.147455,1775669483.759765,599616033837168198,-2896
6.155147,1775669483.759765,599616033837168198,3910
6.162839,1775669483.759765,599616033837168198,-5271
6.170531,1775669483.759765,599616033837168198,1769
6.178400,1775669484.298077,599616034398882504,397
6.186092,1775669484.298077,599616034398882504,-4498
6.193784,1775669484.298077,599616034398882504,4238
6.201476,1775669484.298077,599616034398882504,-3692
6.209169,1775669484.298077,599616034398882504,-91
6.216861,1775669484.298077,599616034398882504,2618
6.224553,1775669484.298077,599616034398882504,-4867
6.232246,1775669484.298077,599616034398882504,4160
6.239938,1775669484.298077,599616034398882504,-1842
6.247630,1775669484.298077,599616034398882504,-2629
6.255323,1775669484.298077,599616034398882504,4183
6.263015,1775669484.298077,599616034398882504,-4865
6.270707,1775669484.298077,599616034398882504,2109
6.278400,1775669484.298077,599616034398882504,663
6.286092,1775669484.298077,599616034398882504,-4215
6.293784,1775669484.298077,599616034398882504,4266
6.301476,1775669484.298077,599616034398882504,-3804
6.309169,1775669484.298077,599616034398882504,-211
6.316861,1775669484.298077,599616034398882504,2131
6.324553,1775669484.298077,599616034398882504,-5418
6.332246,1775669484.298077,599616034398882504,3970
6.339938,1775669484.298077,599616034398882504,-1868
6.347630,1775669484.298077,599616034398882504,-2540
6.355323,1775669484.298077,599616034398882504,4259
6.363015,1775669484.298077,599616034398882504,-4888
6.370707,1775669484.298077,599616034398882504,2086
6.378399,1775669484.298077,599616034398882504,631
6.386092,1775669484.298077,599616034398882504,-4082
6.393784,1775669484.298077,599616034398882504,4436
6.401477,1775669484.298077,599616034398882504,-3678
6.409169,1775669484.298077,599616034398882504,149
6.416861,1775669484.298077,599616034398882504,2648
6.424553,1775669484.298077,599616034398882504,-5124
6.432246,1775669484.298077,599616034398882504,3811
6.439938,1775669484.298077,599616034398882504,-1962
6.447630,1775669484.298077,599616034398882504,-2386
6.455323,1775669484.298077,599616034398882504,4190
6.463015,1775669484.298077,599616034398882504,-4757
6.470707,1775669484.298077,599616034398882504,2467
6.478400,1775669484.298077,599616034398882504,518
6.486092,1775669484.298077,599616034398882504,-4277
6.493784,1775669484.298077,599616034398882504,4339
6.501476,1775669484.298077,599616034398882504,-4082
6.509169,1775669484.298077,599616034398882504,-25
6.516861,1775669484.298077,599616034398882504,2868
6.524553,1775669484.298077,599616034398882504,-4924
6.532246,1775669484.298077,599616034398882504,3919
6.539938,1775669484.298077,599616034398882504,-1810
6.547630,1775669484.298077,599616034398882504,-2372
6.555323,1775669484.298077,599616034398882504,4022
6.563015,1775669484.298077,599616034398882504,-4876
6.570707,1775669484.298077,599616034398882504,2088
6.578400,1775669484.298077,599616034398882504,282
6.586092,1775669484.298077,599616034398882504,-3990
6.593784,1775669484.298077,599616034398882504,4557
6.601476,1775669484.298077,599616034398882504,-3846
6.609169,1775669484.298077,599616034398882504,153
6.616861,1775669484.298077,599616034398882504,2639
6.624553,1775669484.298077,599616034398882504,-5069
6.632246,1775669484.298077,599616034398882504,4055
6.639938,1775669484.298077,599616034398882504,-1668
6.647630,1775669484.298077,599616034398882504,-2285
6.655323,1775669484.298077,599616034398882504,3901
6.663015,1775669484.298077,599616034398882504,-4940
6.670707,1775669484.298077,599616034398882504,2187
6.678400,1775669484.298077,599616034398882504,39
6.686092,1775669484.298077,599616034398882504,-4103
6.693784,1775669484.298077,599616034398882504,4876
6.701476,1775669484.298077,599616034398882504,-3667
6.709169,1775669484.298077,599616034398882504,220
6.716861,1775669484.298077,599616034398882504,2581
6.724553,1775669484.298077,599616034398882504,-5181
6.732246,1775669484.298077,599616034398882504,4137
6.740083,1775669484.929227,599616034960566296,-1530
6.747776,1775669484.929227,599616034960566296,-2058
6.755468,1775669484.929227,599616034960566296,4176
6.763160,1775669484.929227,599616034960566296,-4463
6.770853,1775669484.929227,599616034960566296,2992
6.778545,1775669484.929227,599616034960566296,635
6.786237,1775669484.929227,599616034960566296,-3951
6.793929,1775669484.929227,599616034960566296,4940
6.801622,1775669484.929227,599616034960566296,-3362
6.809314,1775669484.929227,599616034960566296,401
6.817006,1775669484.929227,599616034960566296,2666
6.824699,1775669484.929227,599616034960566296,-4906
6.832391,1775669484.929227,599616034960566296,3862
6.840083,1775669484.929227,599616034960566296,-2090
6.847776,1775669484.929227,599616034960566296,-2065
6.855468,1775669484.929227,599616034960566296,3880
6.863160,1775669484.929227,599616034960566296,-5409
6.870853,1775669484.929227,599616034960566296,2377
6.878545,1775669484.929227,599616034960566296,624
6.886237,1775669484.929227,599616034960566296,-4002
6.893929,1775669484.929227,599616034960566296,4461
6.901622,1775669484.929227,599616034960566296,-3740
6.909314,1775669484.929227,599616034960566296,360
6.917006,1775669484.929227,599616034960566296,2613
6.924699,1775669484.929227,599616034960566296,-4901
6.932391,1775669484.929227,599616034960566296,4018
6.940083,1775669484.929227,599616034960566296,-1794
6.947776,1775669484.929227,599616034960566296,-1911
6.955468,1775669484.929227,599616034960566296,3887
6.963160,1775669484.929227,599616034960566296,-5184
6.970852,1775669484.929227,599616034960566296,2423
6.978545,1775669484.929227,599616034960566296,463
6.986237,1775669484.929227,599616034960566296,-3832
6.993930,1775669484.929227,599616034960566296,4663
7.001622,1775669484.929227,599616034960566296,-3804
7.009314,1775669484.929227,599616034960566296,286
7.017006,1775669484.929227,599616034960566296,2570
7.024699,1775669484.929227,599616034960566296,-4940
7.032391,1775669484.929227,599616034960566296,3681
7.040083,1775669484.929227,599616034960566296,-2414
7.047776,1775669484.929227,599616034960566296,-2070
7.055468,1775669484.929227,599616034960566296,4195
7.063160,1775669484.929227,599616034960566296,-4959
7.070853,1775669484.929227,599616034960566296,2400
7.078545,1775669484.929227,599616034960566296,419
7.086237,1775669484.929227,599616034960566296,-3793
7.093929,1775669484.929227,599616034960566296,4537
7.101622,1775669484.929227,599616034960566296,-3926
7.109314,1775669484.929227,599616034960566296,397
7.117006,1775669484.929227,599616034960566296,2726
7.124699,1775669484.929227,599616034960566296,-4564
7.132391,1775669484.929227,599616034960566296,4438
7.140083,1775669484.929227,599616034960566296,-1691
7.147776,1775669484.929227,599616034960566296,-1714
7.155468,1775669484.929227,599616034960566296,4381
7.163160,1775669484.929227,599616034960566296,-4582
7.170853,1775669484.929227,599616034960566296,2673
7.178545,1775669484.929227,599616034960566296,325
7.186237,1775669484.929227,599616034960566296,-3763
7.193929,1775669484.929227,599616034960566296,4766
7.201622,1775669484.929227,599616034960566296,-3541
7.209314,1775669484.929227,599616034960566296,745
7.217006,1775669484.929227,599616034960566296,2221
7.224699,1775669484.929227,599616034960566296,-5246
7.232391,1775669484.929227,599616034960566296,4488
7.240083,1775669484.929227,599616034960566296,-1693
7.247776,1775669484.929227,599616034960566296,-1964
7.255468,1775669484.929227,599616034960566296,4224
7.263160,1775669484.929227,599616034960566296,-4548
7.270853,1775669484.929227,599616034960566296,2946
7.278545,1775669484.929227,599616034960566296,569
7.286237,1775669484.929227,599616034960566296,-3598
7.293929,1775669484.929227,599616034960566296,4867
7.301767,1775669485.514091,599616035522250086,-3520
7.309459,1775669485.514091,599616035522250086,839
7.317152,1775669485.514091,599616035522250086,2659
7.324844,1775669485.514091,599616035522250086,-4821
7.332536,1775669485.514091,599616035522250086,4254
7.340229,1775669485.514091,599616035522250086,-1891
7.347921,1775669485.514091,599616035522250086,-1631
7.355613,1775669485.514091,599616035522250086,4149
7.363306,1775669485.514091,599616035522250086,-5083
7.370998,1775669485.514091,599616035522250086,2724
7.378690,1775669485.514091,599616035522250086,479
7.386382,1775669485.514091,599616035522250086,-3935
7.394075,1775669485.514091,599616035522250086,3990
7.401767,1775669485.514091,599616035522250086,-4488
7.409459,1775669485.514091,599616035522250086,716
7.417152,1775669485.514091,599616035522250086,2854
7.424844,1775669485.514091,599616035522250086,-4860
7.432536,1775669485.514091,599616035522250086,4266
7.440229,1775669485.514091,599616035522250086,-1721
7.447921,1775669485.514091,599616035522250086,-1594
7.455613,1775669485.514091,599616035522250086,3993
7.463306,1775669485.514091,599616035522250086,-4986
7.470998,1775669485.514091,599616035522250086,2859
7.478690,1775669485.514091,599616035522250086,557
7.486382,1775669485.514091,599616035522250086,-3502
7.494075,1775669485.514091,599616035522250086,4711
7.501767,1775669485.514091,599616035522250086,-3853
7.509459,1775669485.514091,599616035522250086,757
7.517152,1775669485.514091,599616035522250086,2724
7.524844,1775669485.514091,599616035522250086,-4504
7.532536,1775669485.514091,599616035522250086,4420
7.540229,1775669485.514091,599616035522250086,-1893
7.547921,1775669485.514091,599616035522250086,-1448
7.555613,1775669485.514091,599616035522250086,4385
7.563305,1775669485.514091,599616035522250086,-4605
7.570998,1775669485.514091,599616035522250086,2786
7.578690,1775669485.514091,599616035522250086,112
7.586383,1775669485.514091,599616035522250086,-3428
7.594075,1775669485.514091,599616035522250086,5030
7.601767,1775669485.514091,599616035522250086,-3857
7.609459,1775669485.514091,599616035522250086,844
7.617152,1775669485.514091,599616035522250086,2884
7.624844,1775669485.514091,599616035522250086,-4344
7.632536,1775669485.514091,599616035522250086,4791
7.640229,1775669485.514091,599616035522250086,-1475
7.647921,1775669485.514091,599616035522250086,-1200
7.655613,1775669485.514091,599616035522250086,4397
7.663306,1775669485.514091,599616035522250086,-4445
7.670998,1775669485.514091,599616035522250086,3274
7.678690,1775669485.514091,599616035522250086,463
7.686382,1775669485.514091,599616035522250086,-3476
7.694075,1775669485.514091,599616035522250086,4739
7.701767,1775669485.514091,599616035522250086,-3917
7.709459,1775669485.514091,599616035522250086,1035
7.717152,1775669485.514091,599616035522250086,2714
7.724844,1775669485.514091,599616035522250086,-4651
7.732536,1775669485.514091,599616035522250086,4615
7.740229,1775669485.514091,599616035522250086,-1861
7.747921,1775669485.514091,599616035522250086,-1684
7.755613,1775669485.514091,599616035522250086,3740
7.763306,1775669485.514091,599616035522250086,-5032
7.770998,1775669485.514091,599616035522250086,3127
7.778690,1775669485.514091,599616035522250086,328
7.786382,1775669485.514091,599616035522250086,-3586
7.794075,1775669485.514091,599616035522250086,4858
7.801767,1775669485.514091,599616035522250086,-3745
7.809459,1775669485.514091,599616035522250086,876
7.817152,1775669485.514091,599616035522250086,2386
7.824844,1775669485.514091,599616035522250086,-4743
7.832536,1775669485.514091,599616035522250086,4394
7.840229,1775669485.514091,599616035522250086,-1955
7.847921,1775669485.514091,599616035522250086,-1220
7.855613,1775669485.514091,599616035522250086,4204
7.863451,1775669486.009924,599616036083933876,-4869
7.871143,1775669486.009924,599616036083933876,3047
7.878835,1775669486.009924,599616036083933876,247
7.886528,1775669486.009924,599616036083933876,-3396
7.894220,1775669486.009924,599616036083933876,4872
7.901912,1775669486.009924,599616036083933876,-3958
7.909605,1775669486.009924,599616036083933876,927
7.917297,1775669486.009924,599616036083933876,2549
7.924989,1775669486.009924,599616036083933876,-4635
7.932682,1775669486.009924,599616036083933876,4413
7.940374,1775669486.009924,599616036083933876,-1959
7.948066,1775669486.009924,599616036083933876,-1257
7.955759,1775669486.009924,599616036083933876,3928
7.963451,1775669486.009924,599616036083933876,-5039
7.971143,1775669486.009924,599616036083933876,3043
7.978835,1775669486.009924,599616036083933876,130
7.986528,1775669486.009924,599616036083933876,-3449
7.994220,1775669486.009924,599616036083933876,4761
8.001912,1775669486.009924,599616036083933876,-4160
8.009605,1775669486.009924,599616036083933876,835
8.017297,1775669486.009924,599616036083933876,2450
8.024989,1775669486.009924,599616036083933876,-4527
8.032682,1775669486.009924,599616036083933876,4644
8.040374,1775669486.009924,599616036083933876,-1955
8.048066,1775669486.009924,599616036083933876,-1209
8.055759,1775669486.009924,599616036083933876,4179
8.063451,1775669486.009924,599616036083933876,-4502
8.071143,1775669486.009924,599616036083933876,3502
8.078835,1775669486.009924,599616036083933876,94
8.086528,1775669486.009924,599616036083933876,-3394
8.094220,1775669486.009924,599616036083933876,5067
8.101912,1775669486.009924,599616036083933876,-3788
8.109605,1775669486.009924,599616036083933876,1133
8.117297,1775669486.009924,599616036083933876,2205
8.124989,1775669486.009924,599616036083933876,-4755
8.132682,1775669486.009924,599616036083933876,4849
8.140374,1775669486.009924,599616036083933876,-1895
8.148066,1775669486.009924,599616036083933876,-1278
8.155759,1775669486.009924,599616036083933876,4080
8.163451,1775669486.009924,599616036083933876,-4796
8.171143,1775669486.009924,599616036083933876,3192
8.178836,1775669486.009924,599616036083933876,195
8.186528,1775669486.009924,599616036083933876,-3010
8.194220,1775669486.009924,599616036083933876,5062
8.201912,1775669486.009924,599616036083933876,-3924
8.209605,1775669486.009924,599616036083933876,1282
8.217297,1775669486.009924,599616036083933876,2510
8.224989,1775669486.009924,599616036083933876,-4566
8.232682,1775669486.009924,599616036083933876,4500
8.240374,1775669486.009924,599616036083933876,-2189
8.248066,1775669486.009924,599616036083933876,-1021
8.255759,1775669486.009924,599616036083933876,4135
8.263451,1775669486.009924,599616036083933876,-4913
8.271143,1775669486.009924,599616036083933876,3279
8.278835,1775669486.009924,599616036083933876,133
8.286528,1775669486.009924,599616036083933876,-3313
8.294220,1775669486.009924,599616036083933876,4771
8.301912,1775669486.009924,599616036083933876,-3949
8.309605,1775669486.009924,599616036083933876,1287
8.317297,1775669486.009924,599616036083933876,2402
8.324989,1775669486.009924,599616036083933876,-4397
8.332682,1775669486.009924,599616036083933876,4729
8.340374,1775669486.009924,599616036083933876,-1950
8.348066,1775669486.009924,599616036083933876,-587
8.355759,1775669486.009924,599616036083933876,4302
8.363451,1775669486.009924,599616036083933876,-4957
8.371143,1775669486.009924,599616036083933876,3251
8.378835,1775669486.009924,599616036083933876,61
8.386528,1775669486.009924,599616036083933876,-3235
8.394220,1775669486.009924,599616036083933876,4879
8.401912,1775669486.009924,599616036083933876,-3926
8.409605,1775669486.009924,599616036083933876,1225
8.417297,1775669486.009924,599616036083933876,2187
8.425125,1775669486.593662,599616036645607492,-4475
8.432817,1775669486.593662,599616036645607492,4654
8.440509,1775669486.593662,599616036645607492,-2368
8.448202,1775669486.593662,599616036645607492,-1012
8.455894,1775669486.593662,599616036645607492,4351
8.463586,1775669486.593662,599616036645607492,-4426
8.471278,1775669486.593662,599616036645607492,3320
8.478971,1775669486.593662,599616036645607492,-537
8.486663,1775669486.593662,599616036645607492,-3215
8.494355,1775669486.593662,599616036645607492,5372
8.502048,1775669486.593662,599616036645607492,-3924
8.509740,1775669486.593662,599616036645607492,1051
8.517432,1775669486.593662,599616036645607492,2136
8.525125,1775669486.593662,599616036645607492,-4504
8.532817,1775669486.593662,599616036645607492,4750
8.540509,1775669486.593662,599616036645607492,-2008
8.548202,1775669486.593662,599616036645607492,-777
8.555894,1775669486.593662,599616036645607492,4103
8.563586,1775669486.593662,599616036645607492,-4543
8.571278,1775669486.593662,599616036645607492,3779
8.578971,1775669486.593662,599616036645607492,201
8.586663,1775669486.593662,599616036645607492,-2893
8.594355,1775669486.593662,599616036645607492,5165
8.602048,1775669486.593662,599616036645607492,-3557
8.609740,1775669486.593662,599616036645607492,1969
8.617432,1775669486.593662,599616036645607492,2577
8.625125,1775669486.593662,599616036645607492,-4266
8.632817,1775669486.593662,599616036645607492,5097
8.640509,1775669486.593662,599616036645607492,-1799
8.648202,1775669486.593662,599616036645607492,-592
8.655894,1775669486.593662,599616036645607492,4181
8.663586,1775669486.593662,599616036645607492,-4612
8.671278,1775669486.593662,599616036645607492,3717
8.678971,1775669486.593662,599616036645607492,238
8.686663,1775669486.593662,599616036645607492,-2625
8.694355,1775669486.593662,599616036645607492,5191
8.702048,1775669486.593662,599616036645607492,-3912
8.709740,1775669486.593662,599616036645607492,1744
8.717432,1775669486.593662,599616036645607492,2469
8.725125,1775669486.593662,599616036645607492,-4211
8.732817,1775669486.593662,599616036645607492,5119
8.740509,1775669486.593662,599616036645607492,-1973
8.748201,1775669486.593662,599616036645607492,-493
8.755894,1775669486.593662,599616036645607492,4394
8.763586,1775669486.593662,599616036645607492,-4442
8.771279,1775669486.593662,599616036645607492,3965
8.778971,1775669486.593662,599616036645607492,374
8.786663,1775669486.593662,599616036645607492,-2356
8.794355,1775669486.593662,599616036645607492,5514
8.802048,1775669486.593662,599616036645607492,-3736
8.809740,1775669486.593662,599616036645607492,2042
8.817432,1775669486.593662,599616036645607492,2678
8.825125,1775669486.593662,599616036645607492,-4094
8.832817,1775669486.593662,599616036645607492,5099
8.840509,1775669486.593662,599616036645607492,-2122
8.848202,1775669486.593662,599616036645607492,-160
8.855894,1775669486.593662,599616036645607492,4638
8.863586,1775669486.593662,599616036645607492,-4700
8.871278,1775669486.593662,599616036645607492,3784
8.878971,1775669486.593662,599616036645607492,149
8.886663,1775669486.593662,599616036645607492,-2728
8.894355,1775669486.593662,599616036645607492,5282
8.902048,1775669486.593662,599616036645607492,-3798
8.909740,1775669486.593662,599616036645607492,1794
8.917432,1775669486.593662,599616036645607492,2439
8.925125,1775669486.593662,599616036645607492,-3809
8.932817,1775669486.593662,599616036645607492,5372
8.940509,1775669486.593662,599616036645607492,-2193
8.948202,1775669486.593662,599616036645607492,-358
8.955894,1775669486.593662,599616036645607492,4564
8.963586,1775669486.593662,599616036645607492,-4247
8.971278,1775669486.593662,599616036645607492,4142
8.978971,1775669486.593662,599616036645607492,110
8.986813,1775669487.133237,599616037207296368,-2531
8.994506,1775669487.133237,599616037207296368,5443
9.002198,1775669487.133237,599616037207296368,-3729
9.009890,1775669487.133237,599616037207296368,1893
9.017583,1775669487.133237,599616037207296368,2200
9.025275,1775669487.133237,599616037207296368,-4080
9.032967,1775669487.133237,599616037207296368,5383
9.040660,1775669487.133237,599616037207296368,-2017
9.048352,1775669487.133237,599616037207296368,-360
9.056044,1775669487.133237,599616037207296368,4167
9.063736,1775669487.133237,599616037207296368,-4445
9.071429,1775669487.133237,599616037207296368,4231
9.079121,1775669487.133237,599616037207296368,6
9.086813,1775669487.133237,599616037207296368,-2675
9.094506,1775669487.133237,599616037207296368,5374
9.102198,1775669487.133237,599616037207296368,-3580
9.109890,1775669487.133237,599616037207296368,2200
9.117583,1775669487.133237,599616037207296368,2317
9.125275,1775669487.133237,599616037207296368,-4082
9.132967,1775669487.133237,599616037207296368,5165
9.140660,1775669487.133237,599616037207296368,-2317
9.148352,1775669487.133237,599616037207296368,-454
9.156044,1775669487.133237,599616037207296368,3912
9.163736,1775669487.133237,599616037207296368,-4892
9.171429,1775669487.133237,599616037207296368,3788
9.179121,1775669487.133237,599616037207296368,-387
9.186813,1775669487.133237,599616037207296368,-2880
9.194506,1775669487.133237,599616037207296368,5012
9.202198,1775669487.133237,599616037207296368,-4135
9.209890,1775669487.133237,599616037207296368,1847
9.217583,1775669487.133237,599616037207296368,2104
9.225275,1775669487.133237,599616037207296368,-4231
9.232967,1775669487.133237,599616037207296368,4938
9.240660,1775669487.133237,599616037207296368,-2492
9.248352,1775669487.133237,599616037207296368,-504
9.256044,1775669487.133237,599616037207296368,3823
9.263736,1775669487.133237,599616037207296368,-4901
9.271429,1775669487.133237,599616037207296368,3740
9.279121,1775669487.133237,599616037207296368,-268
9.286813,1775669487.133237,599616037207296368,-2632
9.294506,1775669487.133237,599616037207296368,4789
9.302198,1775669487.133237,599616037207296368,-4376
9.309890,1775669487.133237,599616037207296368,1895
9.317583,1775669487.133237,599616037207296368,2042
9.325275,1775669487.133237,599616037207296368,-4204
9.332967,1775669487.133237,599616037207296368,4904
9.340659,1775669487.133237,599616037207296368,-2604
9.348352,1775669487.133237,599616037207296368,-80
9.356044,1775669487.133237,599616037207296368,4190
9.363737,1775669487.133237,599616037207296368,-4911
9.371429,1775669487.133237,599616037207296368,3786
9.379121,1775669487.133237,599616037207296368,-408
9.386813,1775669487.133237,599616037207296368,-2829
9.394506,1775669487.133237,599616037207296368,4649
9.402198,1775669487.133237,599616037207296368,-4557
9.409890,1775669487.133237,599616037207296368,1748
9.417583,1775669487.133237,599616037207296368,1865
9.425275,1775669487.133237,599616037207296368,-4190
9.432967,1775669487.133237,599616037207296368,4959
9.440660,1775669487.133237,599616037207296368,-2792
9.448352,1775669487.133237,599616037207296368,-477
9.456044,1775669487.133237,599616037207296368,3894
9.463736,1775669487.133237,599616037207296368,-4626
9.471429,1775669487.133237,599616037207296368,3935
9.479121,1775669487.133237,599616037207296368,-654
9.486813,1775669487.133237,599616037207296368,-2611
9.494506,1775669487.133237,599616037207296368,5030
9.502198,1775669487.133237,599616037207296368,-4275
9.509890,1775669487.133237,599616037207296368,2012
9.517583,1775669487.133237,599616037207296368,1661
9.525275,1775669487.133237,599616037207296368,-4514
9.532967,1775669487.133237,599616037207296368,4892
9.540660,1775669487.133237,599616037207296368,-2859
9.548472,1775669487.671995,599616037768954726,-665
9.556164,1775669487.671995,599616037768954726,3451
9.563856,1775669487.671995,599616037768954726,-5083
9.571549,1775669487.671995,599616037768954726,3625
9.579241,1775669487.671995,599616037768954726,-952
9.586933,1775669487.671995,599616037768954726,-2962
9.594626,1775669487.671995,599616037768954726,4454
9.602318,1775669487.671995,599616037768954726,-4752
9.610010,1775669487.671995,599616037768954726,1737
9.617703,1775669487.671995,599616037768954726,1452
9.625395,1775669487.671995,599616037768954726,-4516
9.633087,1775669487.671995,599616037768954726,4812
9.640779,1775669487.671995,599616037768954726,-2834
9.648472,1775669487.671995,599616037768954726,-447
9.656164,1775669487.671995,599616037768954726,3428
9.663856,1775669487.671995,599616037768954726,-4908
9.671549,1775669487.671995,599616037768954726,3954
9.679241,1775669487.671995,599616037768954726,-979
9.686933,1775669487.671995,599616037768954726,-2965
9.694626,1775669487.671995,599616037768954726,4504
9.702318,1775669487.671995,599616037768954726,-4879
9.710010,1775669487.671995,599616037768954726,1487
9.717703,1775669487.671995,599616037768954726,1175
9.725395,1775669487.671995,599616037768954726,-4773
9.733087,1775669487.671995,599616037768954726,4268
9.740780,1775669487.671995,599616037768954726,-3421
9.748472,1775669487.671995,599616037768954726,-761
9.756164,1775669487.671995,599616037768954726,3105
9.763856,1775669487.671995,599616037768954726,-5358
9.771549,1775669487.671995,599616037768954726,3456
9.779241,1775669487.671995,599616037768954726,-1103
9.786933,1775669487.671995,599616037768954726,-2875
9.794626,1775669487.671995,599616037768954726,4410
9.802318,1775669487.671995,599616037768954726,-4672
9.810010,1775669487.671995,599616037768954726,1691
9.817703,1775669487.671995,599616037768954726,1117
9.825395,1775669487.671995,599616037768954726,-4463
9.833087,1775669487.671995,599616037768954726,4562
9.840779,1775669487.671995,599616037768954726,-3421
9.848472,1775669487.671995,599616037768954726,-640
9.856164,1775669487.671995,599616037768954726,3169
9.863856,1775669487.671995,599616037768954726,-5158
9.871549,1775669487.671995,599616037768954726,3860
9.879241,1775669487.671995,599616037768954726,-1014
9.886933,1775669487.671995,599616037768954726,-2880
9.894626,1775669487.671995,599616037768954726,4378
9.902318,1775669487.671995,599616037768954726,-4787
9.910010,1775669487.671995,599616037768954726,1608
9.917703,1775669487.671995,599616037768954726,927
9.925395,1775669487.671995,599616037768954726,-4495
9.933087,1775669487.671995,599616037768954726,4718
9.940779,1775669487.671995,599616037768954726,-3224
9.948472,1775669487.671995,599616037768954726,-495
9.956164,1775669487.671995,599616037768954726,3130
9.963856,1775669487.671995,599616037768954726,-5282
9.971549,1775669487.671995,599616037768954726,3412
9.979241,1775669487.671995,599616037768954726,-1427
9.986933,1775669487.671995,599616037768954726,-2859
9.994626,1775669487.671995,599616037768954726,4355
10.002318,1775669487.671995,599616037768954726,-4479
10.010010,1775669487.671995,599616037768954726,2313
10.017703,1775669487.671995,599616037768954726,1090
10.025395,1775669487.671995,599616037768954726,-4750
10.033087,1775669487.671995,599616037768954726,4415
10.040779,1775669487.671995,599616037768954726,-3520
10.048472,1775669487.671995,599616037768954726,-704
10.056164,1775669487.671995,599616037768954726,2845
10.063856,1775669487.671995,599616037768954726,-5466
10.071549,1775669487.671995,599616037768954726,3348
10.079241,1775669487.671995,599616037768954726,-1452
10.086933,1775669487.671995,599616037768954726,-2845
10.094626,1775669487.671995,599616037768954726,4029
10.102318,1775669487.671995,599616037768954726,-5149
10.110130,1775669488.307418,599616038330613086,1631
10.117822,1775669488.307418,599616038330613086,890
10.125515,1775669488.307418,599616038330613086,-4436
10.133207,1775669488.307418,599616038330613086,4401
10.140899,1775669488.307418,599616038330613086,-3752
10.148592,1775669488.307418,599616038330613086,-580
10.156284,1775669488.307418,599616038330613086,2880
10.163976,1775669488.307418,599616038330613086,-5489
10.171669,1775669488.307418,599616038330613086,3378
10.179361,1775669488.307418,599616038330613086,-1599
10.187053,1775669488.307418,599616038330613086,-2620
10.194746,1775669488.307418,599616038330613086,4348
10.202438,1775669488.307418,599616038330613086,-5250
10.210130,1775669488.307418,599616038330613086,1560
10.217822,1775669488.307418,599616038330613086,835
10.225515,1775669488.307418,599616038330613086,-4546
10.233207,1775669488.307418,599616038330613086,4374
10.240899,1775669488.307418,599616038330613086,-3667
10.248592,1775669488.307418,599616038330613086,-610
10.256284,1775669488.307418,599616038330613086,2799
10.263976,1775669488.307418,599616038330613086,-5158
10.271669,1775669488.307418,599616038330613086,3605
10.279361,1775669488.307418,599616038330613086,-1689
10.287053,1775669488.307418,599616038330613086,-2724
10.294746,1775669488.307418,599616038330613086,4275
10.302438,1775669488.307418,599616038330613086,-4913
10.310130,1775669488.307418,599616038330613086,1764
10.317822,1775669488.307418,599616038330613086,573
10.325515,1775669488.307418,599616038330613086,-4621
10.333207,1775669488.307418,599616038330613086,4367
10.340899,1775669488.307418,599616038330613086,-3662
10.348592,1775669488.307418,599616038330613086,-695
10.356284,1775669488.307418,599616038330613086,2102
10.363976,1775669488.307418,599616038330613086,-5450
10.371669,1775669488.307418,599616038330613086,4213
10.379361,1775669488.307418,599616038330613086,-1581
10.387053,1775669488.307418,599616038330613086,-3088
10.394746,1775669488.307418,599616038330613086,4224
10.402438,1775669488.307418,599616038330613086,-4642
10.410130,1775669488.307418,599616038330613086,2070
10.417822,1775669488.307418,599616038330613086,585
10.425515,1775669488.307418,599616038330613086,-4663
10.433207,1775669488.307418,599616038330613086,4298
10.440899,1775669488.307418,599616038330613086,-3782
10.448592,1775669488.307418,599616038330613086,-594
10.456284,1775669488.307418,599616038330613086,2430
10.463976,1775669488.307418,599616038330613086,-5466
10.471669,1775669488.307418,599616038330613086,3525
10.479361,1775669488.307418,599616038330613086,-1812
10.487053,1775669488.307418,599616038330613086,-2907
10.494745,1775669488.307418,599616038330613086,3653
10.502438,1775669488.307418,599616038330613086,-5301
10.510130,1775669488.307418,599616038330613086,1845
10.517823,1775669488.307418,599616038330613086,422
10.525515,1775669488.307418,599616038330613086,-4874
10.533207,1775669488.307418,599616038330613086,3857
10.540899,1775669488.307418,599616038330613086,-3883
10.548592,1775669488.307418,599616038330613086,-185
10.556284,1775669488.307418,599616038330613086,2411
10.563976,1775669488.307418,599616038330613086,-5780
10.571669,1775669488.307418,599616038330613086,3407
10.579361,1775669488.307418,599616038330613086,-1753
10.587053,1775669488.307418,599616038330613086,-2712
10.594746,1775669488.307418,599616038330613086,3768
10.602438,1775669488.307418,599616038330613086,-5294
10.610130,1775669488.307418,599616038330613086,1714
10.617822,1775669488.307418,599616038330613086,399
10.625515,1775669488.307418,599616038330613086,-4532
10.633207,1775669488.307418,599616038330613086,3951
10.640899,1775669488.307418,599616038330613086,-4144
10.648592,1775669488.307418,599616038330613086,-447
10.656284,1775669488.307418,599616038330613086,2230
10.663976,1775669488.307418,599616038330613086,-5652
10.671819,1775669488.843631,599616038892301962,3401
10.679511,1775669488.843631,599616038892301962,-2122
10.687204,1775669488.843631,599616038892301962,-2909
10.694896,1775669488.843631,599616038892301962,3736
10.702588,1775669488.843631,599616038892301962,-5188
10.710280,1775669488.843631,599616038892301962,1874
10.717973,1775669488.843631,599616038892301962,516
10.725665,1775669488.843631,599616038892301962,-3967
10.733357,1775669488.843631,599616038892301962,4511
10.741050,1775669488.843631,599616038892301962,-4208
10.748742,1775669488.843631,599616038892301962,-472
10.756434,1775669488.843631,599616038892301962,2590
10.764127,1775669488.843631,599616038892301962,-5257
10.771819,1775669488.843631,599616038892301962,3407
10.779511,1775669488.843631,599616038892301962,-2228
10.787204,1775669488.843631,599616038892301962,-2652
10.794896,1775669488.843631,599616038892301962,3862
10.802588,1775669488.843631,599616038892301962,-5335
10.810280,1775669488.843631,599616038892301962,1537
10.817973,1775669488.843631,599616038892301962,-100
10.825665,1775669488.843631,599616038892301962,-4525
10.833357,1775669488.843631,599616038892301962,4252
10.841050,1775669488.843631,599616038892301962,-4098
10.848742,1775669488.843631,599616038892301962,-573
10.856434,1775669488.843631,599616038892301962,1847
10.864127,1775669488.843631,599616038892301962,-5595
10.871819,1775669488.843631,599616038892301962,3733
10.879511,1775669488.843631,599616038892301962,-2150
10.887204,1775669488.843631,599616038892301962,-2880
10.894896,1775669488.843631,599616038892301962,3483
10.902588,1775669488.843631,599616038892301962,-5248
10.910280,1775669488.843631,599616038892301962,2189
10.917973,1775669488.843631,599616038892301962,-48
10.925665,1775669488.843631,599616038892301962,-4892
10.933357,1775669488.843631,599616038892301962,4080
10.941050,1775669488.843631,599616038892301962,-4119
10.948742,1775669488.843631,599616038892301962,-488
10.956434,1775669488.843631,599616038892301962,1932
10.964127,1775669488.843631,599616038892301962,-5620
10.971819,1775669488.843631,599616038892301962,3368
10.979511,1775669488.843631,599616038892301962,-2389
10.987204,1775669488.843631,599616038892301962,-2765
10.994896,1775669488.843631,599616038892301962,3451
11.002588,1775669488.843631,599616038892301962,-5317
11.010280,1775669488.843631,599616038892301962,2166
11.017973,1775669488.843631,599616038892301962,208
11.025665,1775669488.843631,599616038892301962,-4298
11.033357,1775669488.843631,599616038892301962,4266
11.041050,1775669488.843631,599616038892301962,-4089
11.048742,1775669488.843631,599616038892301962,-185
11.056434,1775669488.843631,599616038892301962,2017
11.064127,1775669488.843631,599616038892301962,-5468
11.071819,1775669488.843631,599616038892301962,3814
11.079511,1775669488.843631,599616038892301962,-1886
11.087204,1775669488.843631,599616038892301962,-1987
11.094896,1775669488.843631,599616038892301962,3816
11.102588,1775669488.843631,599616038892301962,-5638
11.110281,1775669488.843631,599616038892301962,2157
11.117973,1775669488.843631,599616038892301962,504
11.125665,1775669488.843631,599616038892301962,-4096
11.133357,1775669488.843631,599616038892301962,4332
11.141050,1775669488.843631,599616038892301962,-3811
11.148742,1775669488.843631,599616038892301962,436
11.156434,1775669488.843631,599616038892301962,2267
11.164127,1775669488.843631,599616038892301962,-5379
11.171819,1775669488.843631,599616038892301962,3862
11.179511,1775669488.843631,599616038892301962,-2288
11.187204,1775669488.843631,599616038892301962,-2269
11.194896,1775669488.843631,599616038892301962,3967
11.202588,1775669488.843631,599616038892301962,-5273
11.210280,1775669488.843631,599616038892301962,2207
11.217973,1775669488.843631,599616038892301962,174
11.225665,1775669488.843631,599616038892301962,-4071
11.233508,1775669489.390141,599616039453990838,4266
11.241200,1775669489.390141,599616039453990838,-4323
11.248892,1775669489.390141,599616039453990838,185
11.256585,1775669489.390141,599616039453990838,2446
11.264277,1775669489.390141,599616039453990838,-4879
11.271969,1775669489.390141,599616039453990838,4199
11.279662,1775669489.390141,599616039453990838,-2384
11.287354,1775669489.390141,599616039453990838,-2418
11.295046,1775669489.390141,599616039453990838,3864
11.302739,1775669489.390141,599616039453990838,-5103
11.310431,1775669489.390141,599616039453990838,2375
11.318123,1775669489.390141,599616039453990838,4
11.325816,1775669489.390141,599616039453990838,-3988
11.333508,1775669489.390141,599616039453990838,4624
11.341200,1775669489.390141,599616039453990838,-4082
11.348892,1775669489.390141,599616039453990838,169
11.356585,1775669489.390141,599616039453990838,2212
11.364277,1775669489.390141,599616039453990838,-4858
11.371969,1775669489.390141,599616039453990838,4227
11.379662,1775669489.390141,599616039453990838,-2563
11.387354,1775669489.390141,599616039453990838,-2301
11.395046,1775669489.390141,599616039453990838,3855
11.402739,1775669489.390141,599616039453990838,-5333
11.410431,1775669489.390141,599616039453990838,2409
11.418123,1775669489.390141,599616039453990838,34
11.425816,1775669489.390141,599616039453990838,-4112
11.433508,1775669489.390141,599616039453990838,4422
11.441200,1775669489.390141,599616039453990838,-3850
11.448892,1775669489.390141,599616039453990838,853
11.456585,1775669489.390141,599616039453990838,2462
11.464277,1775669489.390141,599616039453990838,-4959
11.471969,1775669489.390141,599616039453990838,4348
11.479662,1775669489.390141,599616039453990838,-2026
11.487354,1775669489.390141,599616039453990838,-1856
11.495046,1775669489.390141,599616039453990838,3922
11.502739,1775669489.390141,599616039453990838,-4897
11.510431,1775669489.390141,599616039453990838,2887
11.518123,1775669489.390141,599616039453990838,98
11.525815,1775669489.390141,599616039453990838,-3848
11.533508,1775669489.390141,599616039453990838,4523
11.541200,1775669489.390141,599616039453990838,-4241
11.548892,1775669489.390141,599616039453990838,431
11.556585,1775669489.390141,599616039453990838,2161
11.564277,1775669489.390141,599616039453990838,-5069
11.571969,1775669489.390141,599616039453990838,4162
11.579662,1775669489.390141,599616039453990838,-2221
11.587354,1775669489.390141,599616039453990838,-1712
11.595046,1775669489.390141,599616039453990838,3885
11.602739,1775669489.390141,599616039453990838,-5046
11.610431,1775669489.390141,599616039453990838,2974
11.618123,1775669489.390141,599616039453990838,165
11.625816,1775669489.390141,599616039453990838,-3463
11.633508,1775669489.390141,599616039453990838,4821
11.641200,1775669489.390141,599616039453990838,-4436
11.648892,1775669489.390141,599616039453990838,559
11.656585,1775669489.390141,599616039453990838,2423
11.664277,1775669489.390141,599616039453990838,-5037
11.671969,1775669489.390141,599616039453990838,4103
11.679662,1775669489.390141,599616039453990838,-2352
11.687354,1775669489.390141,599616039453990838,-1812
11.695046,1775669489.390141,599616039453990838,3717
11.702739,1775669489.390141,599616039453990838,-5110
11.710431,1775669489.390141,599616039453990838,2870
11.718123,1775669489.390141,599616039453990838,-128
11.725816,1775669489.390141,599616039453990838,-3667
11.733508,1775669489.390141,599616039453990838,4860
11.741200,1775669489.390141,599616039453990838,-3880
11.748892,1775669489.390141,599616039453990838,963
11.756585,1775669489.390141,599616039453990838,2340
11.764277,1775669489.390141,599616039453990838,-4713
11.771969,1775669489.390141,599616039453990838,4541
11.779662,1775669489.390141,599616039453990838,-2184
11.787354,1775669489.390141,599616039453990838,-1457
11.795197,1775669489.923752,599616040015679714,4032
11.802889,1775669489.923752,599616040015679714,-4833
11.810581,1775669489.923752,599616040015679714,3242
11.818274,1775669489.923752,599616040015679714,-39
11.825966,1775669489.923752,599616040015679714,-3791
11.833658,1775669489.923752,599616040015679714,4571
11.841351,1775669489.923752,599616040015679714,-4133
11.849043,1775669489.923752,599616040015679714,906
11.856735,1775669489.923752,599616040015679714,2152
11.864428,1775669489.923752,599616040015679714,-4922
11.872120,1775669489.923752,599616040015679714,4183
11.879812,1775669489.923752,599616040015679714,-2522
11.887504,1775669489.923752,599616040015679714,-1161
11.895197,1775669489.923752,599616040015679714,4206
11.902889,1775669489.923752,599616040015679714,-5163
11.910581,1775669489.923752,599616040015679714,3086
11.918274,1775669489.923752,599616040015679714,240
11.925966,1775669489.923752,599616040015679714,-3226
11.933658,1775669489.923752,599616040015679714,4934
11.941351,1775669489.923752,599616040015679714,-3843
11.949043,1775669489.923752,599616040015679714,1367
11.956735,1775669489.923752,599616040015679714,2524
11.964427,1775669489.923752,599616040015679714,-4408
11.972120,1775669489.923752,599616040015679714,4814
11.979812,1775669489.923752,599616040015679714,-1891
11.987504,1775669489.923752,599616040015679714,-610
11.995197,1775669489.923752,599616040015679714,4410
12.002889,1775669489.923752,599616040015679714,-4947
12.010581,1775669489.923752,599616040015679714,3284
12.018274,1775669489.923752,599616040015679714,215
12.025966,1775669489.923752,599616040015679714,-3137
12.033658,1775669489.923752,599616040015679714,4936
12.041351,1775669489.923752,599616040015679714,-3917
12.049043,1775669489.923752,599616040015679714,1365
12.056735,1775669489.923752,599616040015679714,2306
12.064427,1775669489.923752,599616040015679714,-4557
12.072120,1775669489.923752,599616040015679714,4644
12.079812,1775669489.923752,599616040015679714,-2444
12.087504,1775669489.923752,599616040015679714,-1211
12.095197,1775669489.923752,599616040015679714,4066
12.102889,1775669489.923752,599616040015679714,-4924
12.110581,1775669489.923752,599616040015679714,3093
12.118274,1775669489.923752,599616040015679714,-364
12.125966,1775669489.923752,599616040015679714,-3189
12.133658,1775669489.923752,599616040015679714,5053
12.141351,1775669489.923752,599616040015679714,-4188
12.149043,1775669489.923752,599616040015679714,1296
12.156735,1775669489.923752,599616040015679714,2251
12.164428,1775669489.923752,599616040015679714,-4642
12.172120,1775669489.923752,599616040015679714,4761
12.179812,1775669489.923752,599616040015679714,-2423
12.187504,1775669489.923752,599616040015679714,-1314
12.195197,1775669489.923752,599616040015679714,3853
12.202889,1775669489.923752,599616040015679714,-4867
12.210581,1775669489.923752,599616040015679714,3396
12.218274,1775669489.923752,599616040015679714,-245
12.225966,1775669489.923752,599616040015679714,-3203
12.233658,1775669489.923752,599616040015679714,5002
12.241351,1775669489.923752,599616040015679714,-3942
12.249043,1775669489.923752,599616040015679714,1386
12.256735,1775669489.923752,599616040015679714,1936
12.264428,1775669489.923752,599616040015679714,-4729
12.272120,1775669489.923752,599616040015679714,4651
12.279812,1775669489.923752,599616040015679714,-2478
12.287504,1775669489.923752,599616040015679714,-1191
12.295197,1775669489.923752,599616040015679714,3531
12.302889,1775669489.923752,599616040015679714,-5138
12.310581,1775669489.923752,599616040015679714,3566
12.318274,1775669489.923752,599616040015679714,-245
12.325966,1775669489.923752,599616040015679714,-3327
12.333658,1775669489.923752,599616040015679714,4885
12.341351,1775669489.923752,599616040015679714,-3905
12.349043,1775669489.923752,599616040015679714,1624
12.356886,1775669490.508330,599616040577368590,2099
12.364578,1775669490.508330,599616040577368590,-4486
12.372270,1775669490.508330,599616040577368590,4798
12.379963,1775669490.508330,599616040577368590,-2288
12.387655,1775669490.508330,599616040577368590,-491
12.395347,1775669490.508330,599616040577368590,4091
12.403039,1775669490.508330,599616040577368590,-5012
12.410732,1775669490.508330,599616040577368590,3639
12.418424,1775669490.508330,599616040577368590,-146
12.426116,1775669490.508330,599616040577368590,-3176
12.433809,1775669490.508330,599616040577368590,4683
12.441501,1775669490.508330,599616040577368590,-4282
12.449193,1775669490.508330,599616040577368590,1622
12.456886,1775669490.508330,599616040577368590,2166
12.464578,1775669490.508330,599616040577368590,-4426
12.472270,1775669490.508330,599616040577368590,4720
12.479963,1775669490.508330,599616040577368590,-2540
12.487655,1775669490.508330,599616040577368590,-585
12.495347,1775669490.508330,599616040577368590,4091
12.503039,1775669490.508330,599616040577368590,-4853
12.510732,1775669490.508330,599616040577368590,3674
12.518424,1775669490.508330,599616040577368590,-266
12.526116,1775669490.508330,599616040577368590,-2822
12.533809,1775669490.508330,599616040577368590,5080
12.541501,1775669490.508330,599616040577368590,-4259
12.549193,1775669490.508330,599616040577368590,1562
12.556886,1775669490.508330,599616040577368590,2063
12.564578,1775669490.508330,599616040577368590,-4426
12.572270,1775669490.508330,599616040577368590,4571
12.579963,1775669490.508330,599616040577368590,-2916
12.587655,1775669490.508330,599616040577368590,-885
12.595347,1775669490.508330,599616040577368590,3827
12.603040,1775669490.508330,599616040577368590,-4879
12.610732,1775669490.508330,599616040577368590,3651
12.618424,1775669490.508330,599616040577368590,-289
12.626116,1775669490.508330,599616040577368590,-2590
12.633809,1775669490.508330,599616040577368590,5085
12.641501,1775669490.508330,599616040577368590,-4231
12.649193,1775669490.508330,599616040577368590,1769
12.656886,1775669490.508330,599616040577368590,1991
12.664578,1775669490.508330,599616040577368590,-4252
12.672270,1775669490.508330,599616040577368590,5129
12.679963,1775669490.508330,599616040577368590,-2503
12.687655,1775669490.508330,599616040577368590,-596
12.695347,1775669490.508330,599616040577368590,4059
12.703040,1775669490.508330,599616040577368590,-4532
12.710732,1775669490.508330,599616040577368590,3862
12.718424,1775669490.508330,599616040577368590,-442
12.726116,1775669490.508330,599616040577368590,-2698
12.733809,1775669490.508330,599616040577368590,5131
12.741501,1775669490.508330,599616040577368590,-3993
12.749193,1775669490.508330,599616040577368590,1847
12.756886,1775669490.508330,599616040577368590,1760
12.764578,1775669490.508330,599616040577368590,-4353
12.772270,1775669490.508330,599616040577368590,4915
12.779963,1775669490.508330,599616040577368590,-2753
12.787655,1775669490.508330,599616040577368590,-635
12.795347,1775669490.508330,599616040577368590,3814
12.803039,1775669490.508330,599616040577368590,-4697
12.810732,1775669490.508330,599616040577368590,3970
12.818424,1775669490.508330,599616040577368590,-497
12.826116,1775669490.508330,599616040577368590,-2783
12.833809,1775669490.508330,599616040577368590,4938
12.841501,1775669490.508330,599616040577368590,-4192
12.849193,1775669490.508330,599616040577368590,1996
12.856886,1775669490.508330,599616040577368590,1783
12.864578,1775669490.508330,599616040577368590,-4410
12.872270,1775669490.508330,599616040577368590,4911
12.879963,1775669490.508330,599616040577368590,-2721
12.887655,1775669490.508330,599616040577368590,-266
12.895347,1775669490.508330,599616040577368590,3807
12.903039,1775669490.508330,599616040577368590,-5129
12.910732,1775669490.508330,599616040577368590,3853
12.918574,1775669491.049791,599616041139057466,-452
12.926267,1775669491.049791,599616041139057466,-2836
12.933959,1775669491.049791,599616041139057466,4681
12.941651,1775669491.049791,599616041139057466,-4316
12.949344,1775669491.049791,599616041139057466,1962
12.957036,1775669491.049791,599616041139057466,1650
12.964728,1775669491.049791,599616041139057466,-4426
12.972421,1775669491.049791,599616041139057466,4477
12.980113,1775669491.049791,599616041139057466,-3362
12.987805,1775669491.049791,599616041139057466,-507
12.995497,1775669491.049791,599616041139057466,3729
13.003190,1775669491.049791,599616041139057466,-5076
13.010882,1775669491.049791,599616041139057466,3763
13.018574,1775669491.049791,599616041139057466,-619
13.026267,1775669491.049791,599616041139057466,-2636
13.033959,1775669491.049791,599616041139057466,4718
13.041651,1775669491.049791,599616041139057466,-4603
13.049344,1775669491.049791,599616041139057466,1785
13.057036,1775669491.049791,599616041139057466,1617
13.064728,1775669491.049791,599616041139057466,-4259
13.072421,1775669491.049791,599616041139057466,4752
13.080113,1775669491.049791,599616041139057466,-3100
13.087805,1775669491.049791,599616041139057466,-582
13.095497,1775669491.049791,599616041139057466,3391
13.103190,1775669491.049791,599616041139057466,-5071
13.110882,1775669491.049791,599616041139057466,3559
13.118574,1775669491.049791,599616041139057466,-1106
13.126267,1775669491.049791,599616041139057466,-2673
13.133959,1775669491.049791,599616041139057466,4821
13.141651,1775669491.049791,599616041139057466,-4527
13.149344,1775669491.049791,599616041139057466,1780
13.157036,1775669491.049791,599616041139057466,1406
13.164728,1775669491.049791,599616041139057466,-4328
13.172421,1775669491.049791,599616041139057466,4674
13.180113,1775669491.049791,599616041139057466,-3118
13.187805,1775669491.049791,599616041139057466,-293
13.195498,1775669491.049791,599616041139057466,3545
13.203190,1775669491.049791,599616041139057466,-4899
13.210882,1775669491.049791,599616041139057466,3912
13.218574,1775669491.049791,599616041139057466,-975
13.226267,1775669491.049791,599616041139057466,-2783
13.233959,1775669491.049791,599616041139057466,4674
13.241651,1775669491.049791,599616041139057466,-4312
13.249344,1775669491.049791,599616041139057466,2191
13.257036,1775669491.049791,599616041139057466,1636
13.264728,1775669491.049791,599616041139057466,-3993
13.272421,1775669491.049791,599616041139057466,4984
13.280113,1775669491.049791,599616041139057466,-3015
13.287805,1775669491.049791,599616041139057466,-314
13.295498,1775669491.049791,599616041139057466,3456
13.303190,1775669491.049791,599616041139057466,-4865
13.310882,1775669491.049791,599616041139057466,3855
13.318574,1775669491.049791,599616041139057466,-970
13.326267,1775669491.049791,599616041139057466,-2531
13.333959,1775669491.049791,599616041139057466,4628
13.341651,1775669491.049791,599616041139057466,-4470
13.349344,1775669491.049791,599616041139057466,2150
13.357036,1775669491.049791,599616041139057466,1388
13.364728,1775669491.049791,599616041139057466,-4105
13.372421,1775669491.049791,599616041139057466,4954
13.380113,1775669491.049791,599616041139057466,-3217
13.387805,1775669491.049791,599616041139057466,-330
13.395497,1775669491.049791,599616041139057466,3295
13.403190,1775669491.049791,599616041139057466,-5064
13.410882,1775669491.049791,599616041139057466,4052
13.418574,1775669491.049791,599616041139057466,-830
13.426267,1775669491.049791,599616041139057466,-2368
13.433959,1775669491.049791,599616041139057466,4651
13.441651,1775669491.049791,599616041139057466,-4858
13.449344,1775669491.049791,599616041139057466,1829
13.457036,1775669491.049791,599616041139057466,1273
13.464728,1775669491.049791,599616041139057466,-4215
13.472421,1775669491.049791,599616041139057466,4727
13.480233,1775669491.680669,599616041700715826,-3231
13.487925,1775669491.680669,599616041700715826,-284
13.495617,1775669491.680669,599616041700715826,3132
13.503310,1775669491.680669,599616041700715826,-5071
13.511002,1775669491.680669,599616041700715826,3687
13.518694,1775669491.680669,599616041700715826,-1551
13.526387,1775669491.680669,599616041700715826,-2593
13.534079,1775669491.680669,599616041700715826,4752
13.541771,1775669491.680669,599616041700715826,-4610
13.549464,1775669491.680669,599616041700715826,2051
13.557156,1775669491.680669,599616041700715826,1170
13.564848,1775669491.680669,599616041700715826,-4190
13.572541,1775669491.680669,599616041700715826,4835
13.580233,1775669491.680669,599616041700715826,-3318
13.587925,1775669491.680669,599616041700715826,-273
13.595617,1775669491.680669,599616041700715826,3240
13.603310,1775669491.680669,599616041700715826,-4805
13.611002,1775669491.680669,599616041700715826,4133
13.618694,1775669491.680669,599616041700715826,-1083
13.626387,1775669491.680669,599616041700715826,-2340
13.634079,1775669491.680669,599616041700715826,4640
13.641771,1775669491.680669,599616041700715826,-4516
13.649464,1775669491.680669,599616041700715826,2271
13.657156,1775669491.680669,599616041700715826,1154
13.664848,1775669491.680669,599616041700715826,-4140
13.672541,1775669491.680669,599616041700715826,4901
13.680233,1775669491.680669,599616041700715826,-3100
13.687925,1775669491.680669,599616041700715826,16
13.695617,1775669491.680669,599616041700715826,3199
13.703310,1775669491.680669,599616041700715826,-4830
13.711002,1775669491.680669,599616041700715826,4202
13.718694,1775669491.680669,599616041700715826,-1051
13.726387,1775669491.680669,599616041700715826,-2189
13.734079,1775669491.680669,599616041700715826,4688
13.741771,1775669491.680669,599616041700715826,-4459
13.749464,1775669491.680669,599616041700715826,2526
13.757156,1775669491.680669,599616041700715826,1386
13.764848,1775669491.680669,599616041700715826,-3871
13.772540,1775669491.680669,599616041700715826,4897
13.780233,1775669491.680669,599616041700715826,-3212
13.787925,1775669491.680669,599616041700715826,314
13.795617,1775669491.680669,599616041700715826,3412
13.803310,1775669491.680669,599616041700715826,-4796
13.811002,1775669491.680669,599616041700715826,4213
13.818694,1775669491.680669,599616041700715826,-1090
13.826387,1775669491.680669,599616041700715826,-2106
13.834079,1775669491.680669,599616041700715826,4679
13.841771,1775669491.680669,599616041700715826,-4449
13.849464,1775669491.680669,599616041700715826,2483
13.857156,1775669491.680669,599616041700715826,929
13.864848,1775669491.680669,599616041700715826,-3940
13.872540,1775669491.680669,599616041700715826,5287
13.880233,1775669491.680669,599616041700715826,-3176
13.887925,1775669491.680669,599616041700715826,369
13.895617,1775669491.680669,599616041700715826,3648
13.903310,1775669491.680669,599616041700715826,-4484
13.911002,1775669491.680669,599616041700715826,4459
13.918694,1775669491.680669,599616041700715826,-1044
13.926387,1775669491.680669,599616041700715826,-1617
13.934079,1775669491.680669,599616041700715826,5227
13.941771,1775669491.680669,599616041700715826,-4270
13.949464,1775669491.680669,599616041700715826,2875
13.957156,1775669491.680669,599616041700715826,1388
13.964848,1775669491.680669,599616041700715826,-3704
13.972540,1775669491.680669,599616041700715826,5266
13.980233,1775669491.680669,599616041700715826,-3263
13.987925,1775669491.680669,599616041700715826,289
13.995617,1775669491.680669,599616041700715826,3378
14.003310,1775669491.680669,599616041700715826,-4555
14.011002,1775669491.680669,599616041700715826,4431
14.018694,1775669491.680669,599616041700715826,-1360
14.026387,1775669491.680669,599616041700715826,-2005
14.034079,1775669491.680669,599616041700715826,4835
14.041922,1775669492.217219,599616042262404702,-4369
14.049614,1775669492.217219,599616042262404702,2691
14.057306,1775669492.217219,599616042262404702,913
14.064999,1775669492.217219,599616042262404702,-3736
14.072691,1775669492.217219,599616042262404702,5484
14.080383,1775669492.217219,599616042262404702,-3022
14.088076,1775669492.217219,599616042262404702,559
14.095768,1775669492.217219,599616042262404702,3295
14.103460,1775669492.217219,599616042262404702,-4523
14.111153,1775669492.217219,599616042262404702,4807
14.118845,1775669492.217219,599616042262404702,-1067
14.126537,1775669492.217219,599616042262404702,-1762
14.134229,1775669492.217219,599616042262404702,4952
14.141922,1775669492.217219,599616042262404702,-3917
14.149614,1775669492.217219,599616042262404702,3580
14.157306,1775669492.217219,599616042262404702,1202
14.164999,1775669492.217219,599616042262404702,-3853
14.172691,1775669492.217219,599616042262404702,5516
14.180383,1775669492.217219,599616042262404702,-2916
14.188076,1775669492.217219,599616042262404702,706
14.195768,1775669492.217219,599616042262404702,3368
14.203460,1775669492.217219,599616042262404702,-4468
14.211152,1775669492.217219,599616042262404702,4752
14.218845,1775669492.217219,599616042262404702,-1057
14.226537,1775669492.217219,599616042262404702,-1661
14.234229,1775669492.217219,599616042262404702,4319
14.241922,1775669492.217219,599616042262404702,-4950
14.249614,1775669492.217219,599616042262404702,3157
14.257306,1775669492.217219,599616042262404702,1298
14.264999,1775669492.217219,599616042262404702,-3772
14.272691,1775669492.217219,599616042262404702,5202
14.280383,1775669492.217219,599616042262404702,-3109
14.288076,1775669492.217219,599616042262404702,826
14.295768,1775669492.217219,599616042262404702,3228
14.303460,1775669492.217219,599616042262404702,-4640
14.311152,1775669492.217219,599616042262404702,4569
14.318845,1775669492.217219,599616042262404702,-1239
14.326537,1775669492.217219,599616042262404702,-1457
14.334229,1775669492.217219,599616042262404702,4739
14.341922,1775669492.217219,599616042262404702,-4599
14.349614,1775669492.217219,599616042262404702,3029
14.357306,1775669492.217219,599616042262404702,911
14.364999,1775669492.217219,599616042262404702,-3814
14.372691,1775669492.217219,599616042262404702,5000
14.380383,1775669492.217219,599616042262404702,-3593
14.388076,1775669492.217219,599616042262404702,610
14.395768,1775669492.217219,599616042262404702,3150
14.403460,1775669492.217219,599616042262404702,-4640
14.411152,1775669492.217219,599616042262404702,4133
14.418845,1775669492.217219,599616042262404702,-2242
14.426537,1775669492.217219,599616042262404702,-1835
14.434229,1775669492.217219,599616042262404702,4865
14.441922,1775669492.217219,599616042262404702,-4787
14.449614,1775669492.217219,599616042262404702,2650
14.457306,1775669492.217219,599616042262404702,738
14.464999,1775669492.217219,599616042262404702,-3717
14.472691,1775669492.217219,599616042262404702,4899
14.480383,1775669492.217219,599616042262404702,-3765
14.488075,1775669492.217219,599616042262404702,497
14.495768,1775669492.217219,599616042262404702,2829
14.503460,1775669492.217219,599616042262404702,-4775
14.511153,1775669492.217219,599616042262404702,4390
14.518845,1775669492.217219,599616042262404702,-1799
14.526537,1775669492.217219,599616042262404702,-1712
14.534229,1775669492.217219,599616042262404702,4582
14.541922,1775669492.217219,599616042262404702,-4640
14.549614,1775669492.217219,599616042262404702,2875
14.557306,1775669492.217219,599616042262404702,514
14.564999,1775669492.217219,599616042262404702,-3756
14.572691,1775669492.217219,599616042262404702,5048
14.580383,1775669492.217219,599616042262404702,-3476
14.588076,1775669492.217219,599616042262404702,833
14.595768,1775669492.217219,599616042262404702,2646
14.603580,1775669492.756979,599616042824063060,-4835
14.611272,1775669492.756979,599616042824063060,4828
14.618965,1775669492.756979,599616042824063060,-1546
14.626657,1775669492.756979,599616042824063060,-1677
14.634349,1775669492.756979,599616042824063060,4477
14.642042,1775669492.756979,599616042824063060,-4640
14.649734,1775669492.756979,599616042824063060,3024
14.657426,1775669492.756979,599616042824063060,461
14.665119,1775669492.756979,599616042824063060,-3690
14.672811,1775669492.756979,599616042824063060,5225
14.680503,1775669492.756979,599616042824063060,-3281
14.688195,1775669492.756979,599616042824063060,1243
14.695888,1775669492.756979,599616042824063060,2887
14.703580,1775669492.756979,599616042824063060,-4876
14.711272,1775669492.756979,599616042824063060,4722
14.718965,1775669492.756979,599616042824063060,-1512
14.726657,1775669492.756979,599616042824063060,-1562
14.734349,1775669492.756979,599616042824063060,4323
14.742042,1775669492.756979,599616042824063060,-4741
14.749734,1775669492.756979,599616042824063060,3109
14.757426,1775669492.756979,599616042824063060,543
14.765119,1775669492.756979,599616042824063060,-3596
14.772811,1775669492.756979,599616042824063060,4647
14.780503,1775669492.756979,599616042824063060,-4328
14.788195,1775669492.756979,599616042824063060,775
14.795888,1775669492.756979,599616042824063060,2845
14.803580,1775669492.756979,599616042824063060,-4940
14.811272,1775669492.756979,599616042824063060,4429
14.818965,1775669492.756979,599616042824063060,-1783
14.826657,1775669492.756979,599616042824063060,-1567
14.834349,1775669492.756979,599616042824063060,4128
14.842042,1775669492.756979,599616042824063060,-4876
14.849734,1775669492.756979,599616042824063060,3245
14.857426,1775669492.756979,599616042824063060,511
14.865119,1775669492.756979,599616042824063060,-3582
14.872811,1775669492.756979,599616042824063060,4945
14.880503,1775669492.756979,599616042824063060,-3926
14.888196,1775669492.756979,599616042824063060,821
14.895888,1775669492.756979,599616042824063060,2710
14.903580,1775669492.756979,599616042824063060,-4663
14.911272,1775669492.756979,599616042824063060,4325
14.918965,1775669492.756979,599616042824063060,-2310
14.926657,1775669492.756979,599616042824063060,-1482
14.934349,1775669492.756979,599616042824063060,4293
14.942042,1775669492.756979,599616042824063060,-5142
14.949734,1775669492.756979,599616042824063060,2708
14.957426,1775669492.756979,599616042824063060,-197
14.965119,1775669492.756979,599616042824063060,-3949
14.972811,1775669492.756979,599616042824063060,4803
14.980503,1775669492.756979,599616042824063060,-4098
14.988195,1775669492.756979,599616042824063060,741
14.995888,1775669492.756979,599616042824063060,2519
15.003580,1775669492.756979,599616042824063060,-4796
15.011272,1775669492.756979,599616042824063060,4392
15.018965,1775669492.756979,599616042824063060,-2223
15.026657,1775669492.756979,599616042824063060,-1569
15.034349,1775669492.756979,599616042824063060,4176
15.042042,1775669492.756979,599616042824063060,-4755
15.049734,1775669492.756979,599616042824063060,3231
15.057426,1775669492.756979,599616042824063060,179
15.065119,1775669492.756979,599616042824063060,-3566
15.072811,1775669492.756979,599616042824063060,4869
15.080503,1775669492.756979,599616042824063060,-3901
15.088195,1775669492.756979,599616042824063060,1170
15.095888,1775669492.756979,599616042824063060,2478
15.103580,1775669492.756979,599616042824063060,-4936
15.111272,1775669492.756979,599616042824063060,4341
15.118965,1775669492.756979,599616042824063060,-2382
15.126657,1775669492.756979,599616042824063060,-1645
15.134349,1775669492.756979,599616042824063060,3724
15.142042,1775669492.756979,599616042824063060,-5356
15.149734,1775669492.756979,599616042824063060,3130
15.157426,1775669492.756979,599616042824063060,151
15.165269,1775669493.299069,599616043385751936,-3660
15.172961,1775669493.299069,599616043385751936,4789
15.180654,1775669493.299069,599616043385751936,-3928
15.188346,1775669493.299069,599616043385751936,1152
15.196038,1775669493.299069,599616043385751936,2382
15.203730,1775669493.299069,599616043385751936,-4773
15.211423,1775669493.299069,599616043385751936,4495
15.219115,1775669493.299069,599616043385751936,-2276
15.226807,1775669493.299069,599616043385751936,-1191
15.234500,1775669493.299069,599616043385751936,4112
15.242192,1775669493.299069,599616043385751936,-5253
15.249884,1775669493.299069,599616043385751936,2962
15.257577,1775669493.299069,599616043385751936,11
15.265269,1775669493.299069,599616043385751936,-3545
15.272961,1775669493.299069,599616043385751936,4576
15.280654,1775669493.299069,599616043385751936,-4268
15.288346,1775669493.299069,599616043385751936,959
15.296038,1775669493.299069,599616043385751936,2079
15.303730,1775669493.299069,599616043385751936,-4860
15.311423,1775669493.299069,599616043385751936,4312
15.319115,1775669493.299069,599616043385751936,-2808
15.326807,1775669493.299069,599616043385751936,-1578
15.334500,1775669493.299069,599616043385751936,3830
15.342192,1775669493.299069,599616043385751936,-5197
15.349884,1775669493.299069,599616043385751936,3249
15.357577,1775669493.299069,599616043385751936,-16
15.365269,1775669493.299069,599616043385751936,-3467
15.372961,1775669493.299069,599616043385751936,4858
15.380654,1775669493.299069,599616043385751936,-4087
15.388346,1775669493.299069,599616043385751936,1030
15.396038,1775669493.299069,599616043385751936,2102
15.403731,1775669493.299069,599616043385751936,-4748
15.411423,1775669493.299069,599616043385751936,4218
15.419115,1775669493.299069,599616043385751936,-2868
15.426807,1775669493.299069,599616043385751936,-1292
15.434500,1775669493.299069,599616043385751936,3993
15.442192,1775669493.299069,599616043385751936,-5085
15.449884,1775669493.299069,599616043385751936,3323
15.457577,1775669493.299069,599616043385751936,36
15.465269,1775669493.299069,599616043385751936,-3215
15.472961,1775669493.299069,599616043385751936,4826
15.480654,1775669493.299069,599616043385751936,-4174
15.488346,1775669493.299069,599616043385751936,1094
15.496038,1775669493.299069,599616043385751936,1746
15.503731,1775669493.299069,599616043385751936,-4879
15.511423,1775669493.299069,599616043385751936,4745
15.519115,1775669493.299069,599616043385751936,-2540
15.526807,1775669493.299069,599616043385751936,-1498
15.534500,1775669493.299069,599616043385751936,3674
15.542192,1775669493.299069,599616043385751936,-5131
15.549884,1775669493.299069,599616043385751936,3146
15.557577,1775669493.299069,599616043385751936,-419
15.565269,1775669493.299069,599616043385751936,-3609
15.572961,1775669493.299069,599616043385751936,4140
15.580654,1775669493.299069,599616043385751936,-4805
15.588346,1775669493.299069,599616043385751936,1062
15.596038,1775669493.299069,599616043385751936,1835
15.603731,1775669493.299069,599616043385751936,-5005
15.611423,1775669493.299069,599616043385751936,4364
15.619115,1775669493.299069,599616043385751936,-2675
15.626807,1775669493.299069,599616043385751936,-1351
15.634500,1775669493.299069,599616043385751936,3527
15.642192,1775669493.299069,599616043385751936,-5211
15.649884,1775669493.299069,599616043385751936,3157
15.657577,1775669493.299069,599616043385751936,-550
15.665269,1775669493.299069,599616043385751936,-3490
15.672961,1775669493.299069,599616043385751936,4048
15.680654,1775669493.299069,599616043385751936,-5358
15.688346,1775669493.299069,599616043385751936,596
15.696038,1775669493.299069,599616043385751936,1537
15.703730,1775669493.299069,599616043385751936,-5225
15.711423,1775669493.299069,599616043385751936,3963
15.719115,1775669493.299069,599616043385751936,-3013
15.726933,1775669493.883567,599616043947415382,-1390
15.734625,1775669493.883567,599616043947415382,3284
15.742317,1775669493.883567,599616043947415382,-5567
15.750009,1775669493.883567,599616043947415382,2751
15.757702,1775669493.883567,599616043947415382,-911
15.765394,1775669493.883567,599616043947415382,-3385
15.773086,1775669493.883567,599616043947415382,4364
15.780779,1775669493.883567,599616043947415382,-5142
15.788471,1775669493.883567,599616043947415382,557
15.796163,1775669493.883567,599616043947415382,1443
15.803856,1775669493.883567,599616043947415382,-5014
15.811548,1775669493.883567,599616043947415382,3910
15.819240,1775669493.883567,599616043947415382,-3316
15.826933,1775669493.883567,599616043947415382,-1418
15.834625,1775669493.883567,599616043947415382,3146
15.842317,1775669493.883567,599616043947415382,-5774
15.850009,1775669493.883567,599616043947415382,2533
15.857702,1775669493.883567,599616043947415382,-1420
15.865394,1775669493.883567,599616043947415382,-3857
15.873086,1775669493.883567,599616043947415382,4250
15.880779,1775669493.883567,599616043947415382,-4812
15.888471,1775669493.883567,599616043947415382,764
15.896163,1775669493.883567,599616043947415382,1243
15.903856,1775669493.883567,599616043947415382,-5009
15.911548,1775669493.883567,599616043947415382,3807
15.919240,1775669493.883567,599616043947415382,-3793
15.926932,1775669493.883567,599616043947415382,-1643
15.934625,1775669493.883567,599616043947415382,3251
15.942317,1775669493.883567,599616043947415382,-5393
15.950009,1775669493.883567,599616043947415382,3004
15.957702,1775669493.883567,599616043947415382,-1048
15.965394,1775669493.883567,599616043947415382,-3664
15.973086,1775669493.883567,599616043947415382,4034
15.980779,1775669493.883567,599616043947415382,-4895
15.988471,1775669493.883567,599616043947415382,755
15.996163,1775669493.883567,599616043947415382,876
16.003856,1775669493.883567,599616043947415382,-5140
16.011548,1775669493.883567,599616043947415382,4112
16.019240,1775669493.883567,599616043947415382,-3240
16.026932,1775669493.883567,599616043947415382,-1459
16.034625,1775669493.883567,599616043947415382,2623
16.042317,1775669493.883567,599616043947415382,-5854
16.050009,1775669493.883567,599616043947415382,3045
16.057702,1775669493.883567,599616043947415382,-1085
16.065394,1775669493.883567,599616043947415382,-3786
16.073086,1775669493.883567,599616043947415382,3749
16.080779,1775669493.883567,599616043947415382,-4954
16.088471,1775669493.883567,599616043947415382,1220
16.096163,1775669493.883567,599616043947415382,1225
16.103856,1775669493.883567,599616043947415382,-5103
16.111548,1775669493.883567,599616043947415382,3919
16.119240,1775669493.883567,599616043947415382,-3320
16.126933,1775669493.883567,599616043947415382,-1181
16.134625,1775669493.883567,599616043947415382,3006
16.142317,1775669493.883567,599616043947415382,-5519
16.150009,1775669493.883567,599616043947415382,2969
16.157702,1775669493.883567,599616043947415382,-1124
16.165394,1775669493.883567,599616043947415382,-3391
16.173086,1775669493.883567,599616043947415382,3832
16.180779,1775669493.883567,599616043947415382,-5005
16.188471,1775669493.883567,599616043947415382,1282
16.196163,1775669493.883567,599616043947415382,1067
16.203856,1775669493.883567,599616043947415382,-5101
16.211548,1775669493.883567,599616043947415382,3784
16.219240,1775669493.883567,599616043947415382,-3798
16.226933,1775669493.883567,599616043947415382,-1241
16.234625,1775669493.883567,599616043947415382,3118
16.242317,1775669493.883567,599616043947415382,-5551
16.250009,1775669493.883567,599616043947415382,2859
16.257702,1775669493.883567,599616043947415382,-1287
16.265394,1775669493.883567,599616043947415382,-3267
16.273086,1775669493.883567,599616043947415382,3981
16.280779,1775669493.883567,599616043947415382,-5060
16.288616,1775669494.423736,599616044509099172,1202
16.296308,1775669494.423736,599616044509099172,968
16.304001,1775669494.423736,599616044509099172,-4915
16.311693,1775669494.423736,599616044509099172,4098
16.319385,1775669494.423736,599616044509099172,-3612
16.327078,1775669494.423736,599616044509099172,-1046
16.334770,1775669494.423736,599616044509099172,3162
16.342462,1775669494.423736,599616044509099172,-5333
16.350155,1775669494.423736,599616044509099172,2921
16.357847,1775669494.423736,599616044509099172,-1822
16.365539,1775669494.423736,599616044509099172,-3334
16.373232,1775669494.423736,599616044509099172,4371
16.380924,1775669494.423736,599616044509099172,-4842
16.388616,1775669494.423736,599616044509099172,1239
16.396308,1775669494.423736,599616044509099172,954
16.404001,1775669494.423736,599616044509099172,-4644
16.411693,1775669494.423736,599616044509099172,4296
16.419385,1775669494.423736,599616044509099172,-3396
16.427078,1775669494.423736,599616044509099172,-580
16.434770,1775669494.423736,599616044509099172,3357
16.442462,1775669494.423736,599616044509099172,-5149
16.450155,1775669494.423736,599616044509099172,3350
16.457847,1775669494.423736,599616044509099172,-1282
16.465539,1775669494.423736,599616044509099172,-3017
16.473232,1775669494.423736,599616044509099172,4213
16.480924,1775669494.423736,599616044509099172,-4592
16.488616,1775669494.423736,599616044509099172,1806
16.496308,1775669494.423736,599616044509099172,1092
16.504001,1775669494.423736,599616044509099172,-4488
16.511693,1775669494.423736,599616044509099172,4530
16.519385,1775669494.423736,599616044509099172,-3173
16.527078,1775669494.423736,599616044509099172,-532
16.534770,1775669494.423736,599616044509099172,3068
16.542462,1775669494.423736,599616044509099172,-5028
16.550155,1775669494.423736,599616044509099172,3717
16.557847,1775669494.423736,599616044509099172,-1037
16.565539,1775669494.423736,599616044509099172,-2512
16.573232,1775669494.423736,599616044509099172,4174
16.580924,1775669494.423736,599616044509099172,-5154
16.588616,1775669494.423736,599616044509099172,1863
16.596308,1775669494.423736,599616044509099172,1287
16.604001,1775669494.423736,599616044509099172,-4594
16.611693,1775669494.423736,599616044509099172,4371
16.619385,1775669494.423736,599616044509099172,-3226
16.627078,1775669494.423736,599616044509099172,-511
16.634770,1775669494.423736,599616044509099172,2845
16.642462,1775669494.423736,599616044509099172,-5232
16.650155,1775669494.423736,599616044509099172,3568
16.657847,1775669494.423736,599616044509099172,-1298
16.665539,1775669494.423736,599616044509099172,-2719
16.673231,1775669494.423736,599616044509099172,4222
16.680924,1775669494.423736,599616044509099172,-4720
16.688616,1775669494.423736,599616044509099172,1920
16.696308,1775669494.423736,599616044509099172,1014
16.704001,1775669494.423736,599616044509099172,-4332
16.711693,1775669494.423736,599616044509099172,4401
16.719385,1775669494.423736,599616044509099172,-3582
16.727078,1775669494.423736,599616044509099172,-344
16.734770,1775669494.423736,599616044509099172,3100
16.742462,1775669494.423736,599616044509099172,-5202
16.750155,1775669494.423736,599616044509099172,3513
16.757847,1775669494.423736,599616044509099172,-1399
16.765539,1775669494.423736,599616044509099172,-2600
16.773232,1775669494.423736,599616044509099172,4268
16.780924,1775669494.423736,599616044509099172,-4803
16.788616,1775669494.423736,599616044509099172,1891
16.796308,1775669494.423736,599616044509099172,950
16.804001,1775669494.423736,599616044509099172,-4245
16.811693,1775669494.423736,599616044509099172,4447
16.819385,1775669494.423736,599616044509099172,-3635
16.827078,1775669494.423736,599616044509099172,-390
16.834770,1775669494.423736,599616044509099172,3004
16.842462,1775669494.423736,599616044509099172,-4954
16.850300,1775669495.011018,599616045070782962,3814
16.857992,1775669495.011018,599616045070782962,-1340
16.865685,1775669495.011018,599616045070782962,-2370
16.873377,1775669495.011018,599616045070782962,4351
16.881069,1775669495.011018,599616045070782962,-4839
16.888762,1775669495.011018,599616045070782962,1769
16.896454,1775669495.011018,599616045070782962,364
16.904146,1775669495.011018,599616045070782962,-4456
16.911839,1775669495.011018,599616045070782962,4798
16.919531,1775669495.011018,599616045070782962,-3313
16.927223,1775669495.011018,599616045070782962,71
16.934915,1775669495.011018,599616045070782962,3137
16.942608,1775669495.011018,599616045070782962,-5119
16.950300,1775669495.011018,599616045070782962,4022
16.957992,1775669495.011018,599616045070782962,-1124
16.965685,1775669495.011018,599616045070782962,-2283
16.973377,1775669495.011018,599616045070782962,4546
16.981069,1775669495.011018,599616045070782962,-4397
16.988762,1775669495.011018,599616045070782962,2469
16.996454,1775669495.011018,599616045070782962,1207
17.004146,1775669495.011018,599616045070782962,-3637
17.011839,1775669495.011018,599616045070782962,5209
17.019531,1775669495.011018,599616045070782962,-2990
17.027223,1775669495.011018,599616045070782962,438
17.034915,1775669495.011018,599616045070782962,3373
17.042608,1775669495.011018,599616045070782962,-4672
17.050300,1775669495.011018,599616045070782962,4043
17.057992,1775669495.011018,599616045070782962,-1514
17.065685,1775669495.011018,599616045070782962,-2097
17.073377,1775669495.011018,599616045070782962,4550
17.081069,1775669495.011018,599616045070782962,-4807
17.088762,1775669495.011018,599616045070782962,2467
17.096454,1775669495.011018,599616045070782962,1179
17.104146,1775669495.011018,599616045070782962,-3912
17.111838,1775669495.011018,599616045070782962,4849
17.119531,1775669495.011018,599616045070782962,-3355
17.127223,1775669495.011018,599616045070782962,247
17.134915,1775669495.011018,599616045070782962,3251
17.142608,1775669495.011018,599616045070782962,-4495
17.150300,1775669495.011018,599616045070782962,4403
17.157992,1775669495.011018,599616045070782962,-1301
17.165685,1775669495.011018,599616045070782962,-2056
17.173377,1775669495.011018,599616045070782962,4546
17.181069,1775669495.011018,599616045070782962,-4488
17.188762,1775669495.011018,599616045070782962,2588
17.196454,1775669495.011018,599616045070782962,986
17.204146,1775669495.011018,599616045070782962,-3720
17.211838,1775669495.011018,599616045070782962,5012
17.219531,1775669495.011018,599616045070782962,-3362
17.227223,1775669495.011018,599616045070782962,282
17.234915,1775669495.011018,599616045070782962,2898
17.242608,1775669495.011018,599616045070782962,-4970
17.250300,1775669495.011018,599616045070782962,3988
17.257992,1775669495.011018,599616045070782962,-1716
17.265685,1775669495.011018,599616045070782962,-2097
17.273377,1775669495.011018,599616045070782962,4562
17.281069,1775669495.011018,599616045070782962,-4523
17.288762,1775669495.011018,599616045070782962,2650
17.296454,1775669495.011018,599616045070782962,1005
17.304146,1775669495.011018,599616045070782962,-3527
17.311839,1775669495.011018,599616045070782962,5101
17.319531,1775669495.011018,599616045070782962,-3460
17.327223,1775669495.011018,599616045070782962,353
17.334915,1775669495.011018,599616045070782962,2845
17.342608,1775669495.011018,599616045070782962,-4924
17.350300,1775669495.011018,599616045070782962,4509
17.357992,1775669495.011018,599616045070782962,-1126
17.365685,1775669495.011018,599616045070782962,-1874
17.373377,1775669495.011018,599616045070782962,4376
17.381069,1775669495.011018,599616045070782962,-4525
17.388762,1775669495.011018,599616045070782962,2827
17.396454,1775669495.011018,599616045070782962,844
17.404146,1775669495.011018,599616045070782962,-3740
17.411984,1775669495.594788,599616045632466752,4954
17.419676,1775669495.594788,599616045632466752,-3419
17.427368,1775669495.594788,599616045632466752,509
17.435061,1775669495.594788,599616045632466752,2799
17.442753,1775669495.594788,599616045632466752,-4789
17.450445,1775669495.594788,599616045632466752,4585
17.458138,1775669495.594788,599616045632466752,-1253
17.465830,1775669495.594788,599616045632466752,-1691
17.473522,1775669495.594788,599616045632466752,4142
17.481215,1775669495.594788,599616045632466752,-5060
17.488907,1775669495.594788,599616045632466752,2990
