time,t_wall,t_device_ns,ecg
0.000000,1775669117.848395,599617938661448326,4684
0.007692,1775669117.848395,599617938661448326,4051
0.015385,1775669117.848395,599617938661448326,4451
0.023077,1775669117.848395,599617938661448326,4460
0.030769,1775669117.848395,599617938661448326,4047
0.038461,1775669117.848395,599617938661448326,4645
0.046154,1775669117.848395,599617938661448326,4086
0.053846,1775669117.848395,599617938661448326,4218
0.061538,1775669117.848395,599617938661448326,4517
0.069231,1775669117.848395,599617938661448326,3978
0.076923,1775669117.848395,599617938661448326,4629
0.084615,1775669117.848395,599617938661448326,4250
0.092308,1775669117.848395,599617938661448326,3981
0.100000,1775669117.848395,599617938661448326,4556
0.107692,1775669117.848395,599617938661448326,3953
0.115385,1775669117.848395,599617938661448326,4341
0.123077,1775669117.848395,599617938661448326,4369
0.130769,1775669117.848395,599617938661448326,3894
0.138461,1775669117.848395,599617938661448326,4476
0.146154,1775669117.848395,599617938661448326,3976
0.153846,1775669117.848395,599617938661448326,4111
0.161538,1775669117.848395,599617938661448326,4442
0.169231,1775669117.848395,599617938661448326,3839
0.176923,1775669117.848395,599617938661448326,4401
0.184615,1775669117.848395,599617938661448326,4168
0.192308,1775669117.848395,599617938661448326,3990
0.200000,1775669117.848395,599617938661448326,4471
0.207692,1775669117.848395,599617938661448326,3853
0.215385,1775669117.848395,599617938661448326,4286
0.223077,1775669117.848395,599617938661448326,4282
0.230769,1775669117.848395,599617938661448326,3764
0.238461,1775669117.848395,599617938661448326,4385
0.246154,1775669117.848395,599617938661448326,3917
0.253846,1775669117.848395,599617938661448326,4079
0.261538,1775669117.848395,599617938661448326,4414
0.269231,1775669117.848395,599617938661448326,3745
0.276923,1775669117.848395,599617938661448326,4330
0.284615,1775669117.848395,599617938661448326,4102
0.292308,1775669117.848395,599617938661448326,3871
0.300000,1775669117.848395,599617938661448326,4414
0.307692,1775669117.848395,599617938661448326,3771
0.315385,1775669117.848395,599617938661448326,4104
0.323077,1775669117.848395,599617938661448326,4168
0.330769,1775669117.848395,599617938661448326,3704
0.338462,1775669117.848395,599617938661448326,4323
0.346154,1775669117.848395,599617938661448326,3853
0.353846,1775669117.848395,599617938661448326,3933
0.361538,1775669117.848395,599617938661448326,4264
0.369231,1775669117.848395,599617938661448326,3640
0.376923,1775669117.848395,599617938661448326,4168
0.384615,1775669117.848395,599617938661448326,3917
0.392308,1775669117.848395,599617938661448326,3711
0.400000,1775669117.848395,599617938661448326,4277
0.407692,1775669117.848395,599617938661448326,3638
0.415385,1775669117.848395,599617938661448326,3978
0.423077,1775669117.848395,599617938661448326,4058
0.430769,1775669117.848395,599617938661448326,3624
0.438462,1775669117.848395,599617938661448326,4298
0.446154,1775669117.848395,599617938661448326,3718
0.453846,1775669117.848395,599617938661448326,3700
0.461538,1775669117.848395,599617938661448326,4234
0.469231,1775669117.848395,599617938661448326,3631
0.476923,1775669117.848395,599617938661448326,4003
0.484615,1775669117.848395,599617938661448326,3862
0.492308,1775669117.848395,599617938661448326,3688
0.500000,1775669117.848395,599617938661448326,4143
0.507692,1775669117.848395,599617938661448326,3533
0.515385,1775669117.848395,599617938661448326,3949
0.523077,1775669117.848395,599617938661448326,4044
0.530769,1775669117.848395,599617938661448326,3526
0.538461,1775669117.848395,599617938661448326,4154
0.546154,1775669117.848395,599617938661448326,3652
0.553846,1775669117.848395,599617938661448326,3638
0.561648,1775669118.388585,599617939223096512,4031
0.569340,1775669118.388585,599617939223096512,3435
0.577033,1775669118.388585,599617939223096512,3976
0.584725,1775669118.388585,599617939223096512,3789
0.592417,1775669118.388585,599617939223096512,3526
0.600110,1775669118.388585,599617939223096512,4065
0.607802,1775669118.388585,599617939223096512,3458
0.615494,1775669118.388585,599617939223096512,3816
0.623187,1775669118.388585,599617939223096512,3882
0.630879,1775669118.388585,599617939223096512,3291
0.638571,1775669118.388585,599617939223096512,3942
0.646264,1775669118.388585,599617939223096512,3558
0.653956,1775669118.388585,599617939223096512,3599
0.661648,1775669118.388585,599617939223096512,3992
0.669340,1775669118.388585,599617939223096512,3316
0.677033,1775669118.388585,599617939223096512,3803
0.684725,1775669118.388585,599617939223096512,3643
0.692418,1775669118.388585,599617939223096512,3373
0.700110,1775669118.388585,599617939223096512,3919
0.707802,1775669118.388585,599617939223096512,3298
0.715494,1775669118.388585,599617939223096512,3604
0.723187,1775669118.388585,599617939223096512,3725
0.730879,1775669118.388585,599617939223096512,3182
0.738571,1775669118.388585,599617939223096512,3789
0.746264,1775669118.388585,599617939223096512,3364
0.753956,1775669118.388585,599617939223096512,3378
0.761648,1775669118.388585,599617939223096512,3805
0.769341,1775669118.388585,599617939223096512,3198
0.777033,1775669118.388585,599617939223096512,3679
0.784725,1775669118.388585,599617939223096512,3465
0.792417,1775669118.388585,599617939223096512,3204
0.800110,1775669118.388585,599617939223096512,3832
0.807802,1775669118.388585,599617939223096512,3179
0.815494,1775669118.388585,599617939223096512,3430
0.823187,1775669118.388585,599617939223096512,3602
0.830879,1775669118.388585,599617939223096512,3086
0.838571,1775669118.388585,599617939223096512,3729
0.846264,1775669118.388585,599617939223096512,3291
0.853956,1775669118.388585,599617939223096512,3227
0.861648,1775669118.388585,599617939223096512,3656
0.869341,1775669118.388585,599617939223096512,3026
0.877033,1775669118.388585,599617939223096512,3503
0.884725,1775669118.388585,599617939223096512,3362
0.892417,1775669118.388585,599617939223096512,3042
0.900110,1775669118.388585,599617939223096512,3620
0.907802,1775669118.388585,599617939223096512,3031
0.915494,1775669118.388585,599617939223096512,3287
0.923187,1775669118.388585,599617939223096512,3444
0.930879,1775669118.388585,599617939223096512,2905
0.938571,1775669118.388585,599617939223096512,3506
0.946264,1775669118.388585,599617939223096512,3102
0.953956,1775669118.388585,599617939223096512,3083
0.961648,1775669118.388585,599617939223096512,3476
0.969341,1775669118.388585,599617939223096512,2835
0.977033,1775669118.388585,599617939223096512,3408
0.984725,1775669118.388585,599617939223096512,3261
0.992417,1775669118.388585,599617939223096512,2860
1.000110,1775669118.388585,599617939223096512,3467
1.007802,1775669118.388585,599617939223096512,2903
1.015494,1775669118.388585,599617939223096512,3163
1.023187,1775669118.388585,599617939223096512,3348
1.030879,1775669118.388585,599617939223096512,2775
1.038571,1775669118.388585,599617939223096512,3394
1.046264,1775669118.388585,599617939223096512,3006
1.053956,1775669118.388585,599617939223096512,2926
1.061648,1775669118.388585,599617939223096512,3380
1.069340,1775669118.388585,599617939223096512,2750
1.077033,1775669118.388585,599617939223096512,3211
1.084725,1775669118.388585,599617939223096512,3115
1.092417,1775669118.388585,599617939223096512,2789
1.100110,1775669118.388585,599617939223096512,3369
1.107802,1775669118.388585,599617939223096512,2791
1.115494,1775669118.388585,599617939223096512,3045
1.123271,1775669118.928944,599617939784719266,3220
1.130963,1775669118.928944,599617939784719266,2647
1.138655,1775669118.928944,599617939784719266,3273
1.146348,1775669118.928944,599617939784719266,2878
1.154040,1775669118.928944,599617939784719266,2844
1.161732,1775669118.928944,599617939784719266,3362
1.169425,1775669118.928944,599617939784719266,2666
1.177117,1775669118.928944,599617939784719266,3077
1.184809,1775669118.928944,599617939784719266,2985
1.192502,1775669118.928944,599617939784719266,2682
1.200194,1775669118.928944,599617939784719266,3373
1.207886,1775669118.928944,599617939784719266,2730
1.215579,1775669118.928944,599617939784719266,2846
1.223271,1775669118.928944,599617939784719266,3109
1.230963,1775669118.928944,599617939784719266,2568
1.238655,1775669118.928944,599617939784719266,3147
1.246348,1775669118.928944,599617939784719266,2746
1.254040,1775669118.928944,599617939784719266,2654
1.261732,1775669118.928944,599617939784719266,3261
1.269425,1775669118.928944,599617939784719266,2631
1.277117,1775669118.928944,599617939784719266,2942
1.284809,1775669118.928944,599617939784719266,2919
1.292502,1775669118.928944,599617939784719266,2618
1.300194,1775669118.928944,599617939784719266,3159
1.307886,1775669118.928944,599617939784719266,2584
1.315579,1775669118.928944,599617939784719266,2812
1.323271,1775669118.928944,599617939784719266,3022
1.330963,1775669118.928944,599617939784719266,2451
1.338655,1775669118.928944,599617939784719266,3118
1.346348,1775669118.928944,599617939784719266,2748
1.354040,1775669118.928944,599617939784719266,2577
1.361732,1775669118.928944,599617939784719266,3086
1.369425,1775669118.928944,599617939784719266,2469
1.377117,1775669118.928944,599617939784719266,2901
1.384809,1775669118.928944,599617939784719266,2855
1.392502,1775669118.928944,599617939784719266,2449
1.400194,1775669118.928944,599617939784719266,3040
1.407886,1775669118.928944,599617939784719266,2504
1.415578,1775669118.928944,599617939784719266,2691
1.423271,1775669118.928944,599617939784719266,2919
1.430963,1775669118.928944,599617939784719266,2321
1.438655,1775669118.928944,599617939784719266,2942
1.446348,1775669118.928944,599617939784719266,2643
1.454040,1775669118.928944,599617939784719266,2495
1.461732,1775669118.928944,599617939784719266,2985
1.469425,1775669118.928944,599617939784719266,2374
1.477117,1775669118.928944,599617939784719266,2803
1.484809,1775669118.928944,599617939784719266,2771
1.492502,1775669118.928944,599617939784719266,2369
1.500194,1775669118.928944,599617939784719266,2990
1.507886,1775669118.928944,599617939784719266,2481
1.515579,1775669118.928944,599617939784719266,2684
1.523271,1775669118.928944,599617939784719266,2940
1.530963,1775669118.928944,599617939784719266,2294
1.538655,1775669118.928944,599617939784719266,2862
1.546348,1775669118.928944,599617939784719266,2556
1.554040,1775669118.928944,599617939784719266,2412
1.561732,1775669118.928944,599617939784719266,2937
1.569425,1775669118.928944,599617939784719266,2305
1.577117,1775669118.928944,599617939784719266,2702
1.584809,1775669118.928944,599617939784719266,2695
1.592502,1775669118.928944,599617939784719266,2289
1.600194,1775669118.928944,599617939784719266,2921
1.607886,1775669118.928944,599617939784719266,2399
1.615579,1775669118.928944,599617939784719266,2526
1.623271,1775669118.928944,599617939784719266,2828
1.630963,1775669118.928944,599617939784719266,2248
1.638655,1775669118.928944,599617939784719266,2821
1.646348,1775669118.928944,599617939784719266,2542
1.654040,1775669118.928944,599617939784719266,2385
1.661732,1775669118.928944,599617939784719266,2887
1.669425,1775669118.928944,599617939784719266,2246
1.677117,1775669118.928944,599617939784719266,2634
1.684894,1775669119.513846,599617940346342020,2629
1.692586,1775669119.513846,599617940346342020,2237
1.700278,1775669119.513846,599617940346342020,2946
1.707970,1775669119.513846,599617940346342020,2408
1.715663,1775669119.513846,599617940346342020,2437
1.723355,1775669119.513846,599617940346342020,2732
1.731047,1775669119.513846,599617940346342020,2164
1.738740,1775669119.513846,599617940346342020,2778
1.746432,1775669119.513846,599617940346342020,2520
1.754124,1775669119.513846,599617940346342020,2314
1.761817,1775669119.513846,599617940346342020,2832
1.769509,1775669119.513846,599617940346342020,2205
1.777201,1775669119.513846,599617940346342020,2588
1.784894,1775669119.513846,599617940346342020,2634
1.792586,1775669119.513846,599617940346342020,2161
1.800278,1775669119.513846,599617940346342020,2755
1.807971,1775669119.513846,599617940346342020,2280
1.815663,1775669119.513846,599617940346342020,2362
1.823355,1775669119.513846,599617940346342020,2634
1.831047,1775669119.513846,599617940346342020,2052
1.838740,1775669119.513846,599617940346342020,2627
1.846432,1775669119.513846,599617940346342020,2337
1.854124,1775669119.513846,599617940346342020,2134
1.861817,1775669119.513846,599617940346342020,2647
1.869509,1775669119.513846,599617940346342020,2038
1.877201,1775669119.513846,599617940346342020,2490
1.884894,1775669119.513846,599617940346342020,2495
1.892586,1775669119.513846,599617940346342020,1947
1.900278,1775669119.513846,599617940346342020,2670
1.907971,1775669119.513846,599617940346342020,2227
1.915663,1775669119.513846,599617940346342020,2200
1.923355,1775669119.513846,599617940346342020,2590
1.931047,1775669119.513846,599617940346342020,2031
1.938740,1775669119.513846,599617940346342020,2485
1.946432,1775669119.513846,599617940346342020,2232
1.954124,1775669119.513846,599617940346342020,2036
1.961817,1775669119.513846,599617940346342020,2549
1.969509,1775669119.513846,599617940346342020,1938
1.977201,1775669119.513846,599617940346342020,2298
1.984894,1775669119.513846,599617940346342020,2342
1.992586,1775669119.513846,599617940346342020,1867
2.000278,1775669119.513846,599617940346342020,2515
2.007970,1775669119.513846,599617940346342020,2052
2.015663,1775669119.513846,599617940346342020,2104
2.023355,1775669119.513846,599617940346342020,2421
2.031047,1775669119.513846,599617940346342020,1764
2.038740,1775669119.513846,599617940346342020,2264
2.046432,1775669119.513846,599617940346342020,2038
2.054124,1775669119.513846,599617940346342020,1867
2.061817,1775669119.513846,599617940346342020,2467
2.069509,1775669119.513846,599617940346342020,1798
2.077201,1775669119.513846,599617940346342020,2084
2.084894,1775669119.513846,599617940346342020,2186
2.092586,1775669119.513846,599617940346342020,1682
2.100278,1775669119.513846,599617940346342020,2287
2.107970,1775669119.513846,599617940346342020,1860
2.115663,1775669119.513846,599617940346342020,1885
2.123355,1775669119.513846,599617940346342020,2227
2.131047,1775669119.513846,599617940346342020,1629
2.138740,1775669119.513846,599617940346342020,2148
2.146432,1775669119.513846,599617940346342020,1940
2.154124,1775669119.513846,599617940346342020,1698
2.161817,1775669119.513846,599617940346342020,2243
2.169509,1775669119.513846,599617940346342020,1616
2.177201,1775669119.513846,599617940346342020,1876
2.184894,1775669119.513846,599617940346342020,1974
2.192586,1775669119.513846,599617940346342020,1559
2.200278,1775669119.513846,599617940346342020,2186
2.207970,1775669119.513846,599617940346342020,1698
2.215663,1775669119.513846,599617940346342020,1698
2.223355,1775669119.513846,599617940346342020,2036
2.231047,1775669119.513846,599617940346342020,1401
2.238740,1775669119.513846,599617940346342020,1965
2.246516,1775669120.052866,599617940907964774,1803
2.254209,1775669120.052866,599617940907964774,1486
2.261901,1775669120.052866,599617940907964774,2020
2.269593,1775669120.052866,599617940907964774,1438
2.277286,1775669120.052866,599617940907964774,1739
2.284978,1775669120.052866,599617940907964774,1867
2.292670,1775669120.052866,599617940907964774,1367
2.300363,1775669120.052866,599617940907964774,1947
2.308055,1775669120.052866,599617940907964774,1490
2.315747,1775669120.052866,599617940907964774,1502
2.323439,1775669120.052866,599617940907964774,1922
2.331132,1775669120.052866,599617940907964774,1323
2.338824,1775669120.052866,599617940907964774,1828
2.346516,1775669120.052866,599617940907964774,1659
2.354209,1775669120.052866,599617940907964774,1351
2.361901,1775669120.052866,599617940907964774,1867
2.369593,1775669120.052866,599617940907964774,1326
2.377286,1775669120.052866,599617940907964774,1700
2.384978,1775669120.052866,599617940907964774,1805
2.392670,1775669120.052866,599617940907964774,1234
2.400363,1775669120.052866,599617940907964774,1839
2.408055,1775669120.052866,599617940907964774,1440
2.415747,1775669120.052866,599617940907964774,1470
2.423440,1775669120.052866,599617940907964774,1890
2.431132,1775669120.052866,599617940907964774,1216
2.438824,1775669120.052866,599617940907964774,1780
2.446516,1775669120.052866,599617940907964774,1732
2.454209,1775669120.052866,599617940907964774,1301
2.461901,1775669120.052866,599617940907964774,1848
2.469593,1775669120.052866,599617940907964774,1408
2.477286,1775669120.052866,599617940907964774,1648
2.484978,1775669120.052866,599617940907964774,1737
2.492670,1775669120.052866,599617940907964774,1280
2.500363,1775669120.052866,599617940907964774,1931
2.508055,1775669120.052866,599617940907964774,1492
2.515747,1775669120.052866,599617940907964774,1474
2.523440,1775669120.052866,599617940907964774,1931
2.531132,1775669120.052866,599617940907964774,1285
2.538824,1775669120.052866,599617940907964774,1734
2.546516,1775669120.052866,599617940907964774,1648
2.554209,1775669120.052866,599617940907964774,1387
2.561901,1775669120.052866,599617940907964774,1954
2.569593,1775669120.052866,599617940907964774,1367
2.577286,1775669120.052866,599617940907964774,1634
2.584978,1775669120.052866,599617940907964774,1798
2.592670,1775669120.052866,599617940907964774,1266
2.600363,1775669120.052866,599617940907964774,1871
2.608055,1775669120.052866,599617940907964774,1474
2.615747,1775669120.052866,599617940907964774,1449
2.623440,1775669120.052866,599617940907964774,1903
2.631132,1775669120.052866,599617940907964774,1262
2.638824,1775669120.052866,599617940907964774,1730
2.646516,1775669120.052866,599617940907964774,1629
2.654209,1775669120.052866,599617940907964774,1292
2.661901,1775669120.052866,599617940907964774,1892
2.669593,1775669120.052866,599617940907964774,1342
2.677286,1775669120.052866,599617940907964774,1561
2.684978,1775669120.052866,599617940907964774,1769
2.692670,1775669120.052866,599617940907964774,1232
2.700363,1775669120.052866,599617940907964774,1791
2.708055,1775669120.052866,599617940907964774,1449
2.715747,1775669120.052866,599617940907964774,1449
2.723439,1775669120.052866,599617940907964774,1858
2.731132,1775669120.052866,599617940907964774,1196
2.738824,1775669120.052866,599617940907964774,1707
2.746516,1775669120.052866,599617940907964774,1627
2.754209,1775669120.052866,599617940907964774,1237
2.761901,1775669120.052866,599617940907964774,1775
2.769593,1775669120.052866,599617940907964774,1237
2.777286,1775669120.052866,599617940907964774,1556
2.784978,1775669120.052866,599617940907964774,1759
2.792670,1775669120.052866,599617940907964774,1139
2.800363,1775669120.052866,599617940907964774,1778
2.808139,1775669120.593915,599617941469587528,1449
2.815831,1775669120.593915,599617941469587528,1330
2.823524,1775669120.593915,599617941469587528,1803
2.831216,1775669120.593915,599617941469587528,1189
2.838908,1775669120.593915,599617941469587528,1629
2.846601,1775669120.593915,599617941469587528,1572
2.854293,1775669120.593915,599617941469587528,1212
2.861985,1775669120.593915,599617941469587528,1828
2.869678,1775669120.593915,599617941469587528,1321
2.877370,1775669120.593915,599617941469587528,1481
2.885062,1775669120.593915,599617941469587528,1675
2.892755,1775669120.593915,599617941469587528,1155
2.900447,1775669120.593915,599617941469587528,1730
2.908139,1775669120.593915,599617941469587528,1390
2.915831,1775669120.593915,599617941469587528,1344
2.923524,1775669120.593915,599617941469587528,1789
2.931216,1775669120.593915,599617941469587528,1125
2.938908,1775669120.593915,599617941469587528,1584
2.946601,1775669120.593915,599617941469587528,1531
2.954293,1775669120.593915,599617941469587528,1150
2.961985,1775669120.593915,599617941469587528,1759
2.969678,1775669120.593915,599617941469587528,1198
2.977370,1775669120.593915,599617941469587528,1383
2.985062,1775669120.593915,599617941469587528,1691
2.992755,1775669120.593915,599617941469587528,1150
3.000447,1775669120.593915,599617941469587528,1700
3.008139,1775669120.593915,599617941469587528,1355
3.015831,1775669120.593915,599617941469587528,1239
3.023524,1775669120.593915,599617941469587528,1746
3.031216,1775669120.593915,599617941469587528,1143
3.038908,1775669120.593915,599617941469587528,1540
3.046601,1775669120.593915,599617941469587528,1506
3.054293,1775669120.593915,599617941469587528,1155
3.061985,1775669120.593915,599617941469587528,1750
3.069678,1775669120.593915,599617941469587528,1187
3.077370,1775669120.593915,599617941469587528,1326
3.085062,1775669120.593915,599617941469587528,1579
3.092755,1775669120.593915,599617941469587528,1031
3.100447,1775669120.593915,599617941469587528,1584
3.108139,1775669120.593915,599617941469587528,1200
3.115831,1775669120.593915,599617941469587528,1027
3.123524,1775669120.593915,599617941469587528,1454
3.131216,1775669120.593915,599617941469587528,735
3.138908,1775669120.593915,599617941469587528,1082
3.146601,1775669120.593915,599617941469587528,997
3.154293,1775669120.593915,599617941469587528,529
3.161985,1775669120.593915,599617941469587528,1107
3.169678,1775669120.593915,599617941469587528,561
3.177370,1775669120.593915,599617941469587528,682
3.185062,1775669120.593915,599617941469587528,951
3.192755,1775669120.593915,599617941469587528,294
3.200447,1775669120.593915,599617941469587528,705
3.208139,1775669120.593915,599617941469587528,527
3.215832,1775669120.593915,599617941469587528,541
3.223524,1775669120.593915,599617941469587528,794
3.231216,1775669120.593915,599617941469587528,105
3.238908,1775669120.593915,599617941469587528,666
3.246601,1775669120.593915,599617941469587528,563
3.254293,1775669120.593915,599617941469587528,29
3.261985,1775669120.593915,599617941469587528,673
3.269678,1775669120.593915,599617941469587528,200
3.277370,1775669120.593915,599617941469587528,305
3.285062,1775669120.593915,599617941469587528,550
3.292755,1775669120.593915,599617941469587528,-57
3.300447,1775669120.593915,599617941469587528,486
3.308139,1775669120.593915,599617941469587528,207
3.315831,1775669120.593915,599617941469587528,63
3.323524,1775669120.593915,599617941469587528,588
3.331216,1775669120.593915,599617941469587528,-22
3.338908,1775669120.593915,599617941469587528,346
3.346601,1775669120.593915,599617941469587528,356
3.354293,1775669120.593915,599617941469587528,-47
3.361985,1775669120.593915,599617941469587528,584
3.369772,1775669121.221946,599617942031220454,95
3.377464,1775669121.221946,599617942031220454,187
3.385157,1775669121.221946,599617942031220454,497
3.392849,1775669121.221946,599617942031220454,-57
3.400541,1775669121.221946,599617942031220454,520
3.408234,1775669121.221946,599617942031220454,285
3.415926,1775669121.221946,599617942031220454,91
3.423618,1775669121.221946,599617942031220454,598
3.431311,1775669121.221946,599617942031220454,0
3.439003,1775669121.221946,599617942031220454,330
3.446695,1775669121.221946,599617942031220454,362
3.454387,1775669121.221946,599617942031220454,-6
3.462080,1775669121.221946,599617942031220454,577
3.469772,1775669121.221946,599617942031220454,34
3.477464,1775669121.221946,599617942031220454,168
3.485157,1775669121.221946,599617942031220454,520
3.492849,1775669121.221946,599617942031220454,-89
3.500541,1775669121.221946,599617942031220454,465
3.508234,1775669121.221946,599617942031220454,244
3.515926,1775669121.221946,599617942031220454,43
3.523618,1775669121.221946,599617942031220454,541
3.531311,1775669121.221946,599617942031220454,-45
3.539003,1775669121.221946,599617942031220454,378
3.546695,1775669121.221946,599617942031220454,435
3.554387,1775669121.221946,599617942031220454,-63
3.562080,1775669121.221946,599617942031220454,547
3.569772,1775669121.221946,599617942031220454,107
3.577464,1775669121.221946,599617942031220454,184
3.585157,1775669121.221946,599617942031220454,520
3.592849,1775669121.221946,599617942031220454,-75
3.600541,1775669121.221946,599617942031220454,470
3.608234,1775669121.221946,599617942031220454,287
3.615926,1775669121.221946,599617942031220454,70
3.623618,1775669121.221946,599617942031220454,582
3.631310,1775669121.221946,599617942031220454,-9
3.639003,1775669121.221946,599617942031220454,296
3.646695,1775669121.221946,599617942031220454,358
3.654387,1775669121.221946,599617942031220454,-43
3.662080,1775669121.221946,599617942031220454,536
3.669772,1775669121.221946,599617942031220454,70
3.677464,1775669121.221946,599617942031220454,262
3.685157,1775669121.221946,599617942031220454,657
3.692849,1775669121.221946,599617942031220454,-11
3.700541,1775669121.221946,599617942031220454,506
3.708234,1775669121.221946,599617942031220454,273
3.715926,1775669121.221946,599617942031220454,34
3.723618,1775669121.221946,599617942031220454,691
3.731310,1775669121.221946,599617942031220454,120
3.739003,1775669121.221946,599617942031220454,365
3.746695,1775669121.221946,599617942031220454,470
3.754387,1775669121.221946,599617942031220454,6
3.762080,1775669121.221946,599617942031220454,584
3.769772,1775669121.221946,599617942031220454,178
3.777464,1775669121.221946,599617942031220454,232
3.785157,1775669121.221946,599617942031220454,575
3.792849,1775669121.221946,599617942031220454,-36
3.800541,1775669121.221946,599617942031220454,449
3.808234,1775669121.221946,599617942031220454,299
3.815926,1775669121.221946,599617942031220454,134
3.823618,1775669121.221946,599617942031220454,657
3.831311,1775669121.221946,599617942031220454,36
3.839003,1775669121.221946,599617942031220454,358
3.846695,1775669121.221946,599617942031220454,454
3.854387,1775669121.221946,599617942031220454,-13
3.862080,1775669121.221946,599617942031220454,646
3.869772,1775669121.221946,599617942031220454,216
3.877464,1775669121.221946,599617942031220454,203
3.885157,1775669121.221946,599617942031220454,568
3.892849,1775669121.221946,599617942031220454,-43
3.900541,1775669121.221946,599617942031220454,474
3.908234,1775669121.221946,599617942031220454,333
3.915926,1775669121.221946,599617942031220454,38
3.923618,1775669121.221946,599617942031220454,556
3.931446,1775669121.762485,599617942592894072,-20
3.939138,1775669121.762485,599617942592894072,244
3.946830,1775669121.762485,599617942592894072,376
3.954523,1775669121.762485,599617942592894072,-84
3.962215,1775669121.762485,599617942592894072,497
3.969907,1775669121.762485,599617942592894072,95
3.977600,1775669121.762485,599617942592894072,89
3.985292,1775669121.762485,599617942592894072,413
3.992984,1775669121.762485,599617942592894072,-123
4.000677,1775669121.762485,599617942592894072,495
4.008369,1775669121.762485,599617942592894072,326
4.016061,1775669121.762485,599617942592894072,-20
4.023753,1775669121.762485,599617942592894072,495
4.031446,1775669121.762485,599617942592894072,-59
4.039138,1775669121.762485,599617942592894072,317
4.046830,1775669121.762485,599617942592894072,488
4.054523,1775669121.762485,599617942592894072,-52
4.062215,1775669121.762485,599617942592894072,550
4.069907,1775669121.762485,599617942592894072,155
4.077600,1775669121.762485,599617942592894072,168
4.085292,1775669121.762485,599617942592894072,620
4.092984,1775669121.762485,599617942592894072,18
4.100676,1775669121.762485,599617942592894072,502
4.108369,1775669121.762485,599617942592894072,383
4.116061,1775669121.762485,599617942592894072,89
4.123753,1775669121.762485,599617942592894072,666
4.131446,1775669121.762485,599617942592894072,136
4.139138,1775669121.762485,599617942592894072,426
4.146830,1775669121.762485,599617942592894072,588
4.154523,1775669121.762485,599617942592894072,38
4.162215,1775669121.762485,599617942592894072,600
4.169907,1775669121.762485,599617942592894072,257
4.177600,1775669121.762485,599617942592894072,296
4.185292,1775669121.762485,599617942592894072,721
4.192984,1775669121.762485,599617942592894072,100
4.200676,1775669121.762485,599617942592894072,582
4.208369,1775669121.762485,599617942592894072,420
4.216061,1775669121.762485,599617942592894072,127
4.223753,1775669121.762485,599617942592894072,840
4.231446,1775669121.762485,599617942592894072,285
4.239138,1775669121.762485,599617942592894072,449
4.246830,1775669121.762485,599617942592894072,639
4.254523,1775669121.762485,599617942592894072,123
4.262215,1775669121.762485,599617942592894072,705
4.269907,1775669121.762485,599617942592894072,344
4.277600,1775669121.762485,599617942592894072,317
4.285292,1775669121.762485,599617942592894072,760
4.292984,1775669121.762485,599617942592894072,134
4.300676,1775669121.762485,599617942592894072,602
4.308369,1775669121.762485,599617942592894072,529
4.316061,1775669121.762485,599617942592894072,198
4.323753,1775669121.762485,599617942592894072,778
4.331446,1775669121.762485,599617942592894072,225
4.339138,1775669121.762485,599617942592894072,435
4.346830,1775669121.762485,599617942592894072,632
4.354523,1775669121.762485,599617942592894072,98
4.362215,1775669121.762485,599617942592894072,657
4.369907,1775669121.762485,599617942592894072,404
4.377599,1775669121.762485,599617942592894072,445
4.385292,1775669121.762485,599617942592894072,728
4.392984,1775669121.762485,599617942592894072,95
4.400676,1775669121.762485,599617942592894072,705
4.408369,1775669121.762485,599617942592894072,579
4.416061,1775669121.762485,599617942592894072,198
4.423753,1775669121.762485,599617942592894072,842
4.431446,1775669121.762485,599617942592894072,310
4.439138,1775669121.762485,599617942592894072,538
4.446830,1775669121.762485,599617942592894072,721
4.454523,1775669121.762485,599617942592894072,136
4.462215,1775669121.762485,599617942592894072,792
4.469907,1775669121.762485,599617942592894072,456
4.477600,1775669121.762485,599617942592894072,346
4.485292,1775669121.762485,599617942592894072,883
4.493068,1775669122.347052,599617943154516826,289
4.500761,1775669122.347052,599617943154516826,691
4.508453,1775669122.347052,599617943154516826,650
4.516145,1775669122.347052,599617943154516826,305
4.523838,1775669122.347052,599617943154516826,878
4.531530,1775669122.347052,599617943154516826,344
4.539222,1775669122.347052,599617943154516826,538
4.546915,1775669122.347052,599617943154516826,782
4.554607,1775669122.347052,599617943154516826,296
4.562299,1775669122.347052,599617943154516826,878
4.569991,1775669122.347052,599617943154516826,488
4.577684,1775669122.347052,599617943154516826,438
4.585376,1775669122.347052,599617943154516826,956
4.593068,1775669122.347052,599617943154516826,308
4.600761,1775669122.347052,599617943154516826,732
4.608453,1775669122.347052,599617943154516826,691
4.616145,1775669122.347052,599617943154516826,326
4.623838,1775669122.347052,599617943154516826,956
4.631530,1775669122.347052,599617943154516826,426
4.639222,1775669122.347052,599617943154516826,579
4.646915,1775669122.347052,599617943154516826,842
4.654607,1775669122.347052,599617943154516826,289
4.662299,1775669122.347052,599617943154516826,901
4.669991,1775669122.347052,599617943154516826,646
4.677684,1775669122.347052,599617943154516826,495
4.685376,1775669122.347052,599617943154516826,945
4.693068,1775669122.347052,599617943154516826,344
4.700761,1775669122.347052,599617943154516826,751
4.708453,1775669122.347052,599617943154516826,703
4.716145,1775669122.347052,599617943154516826,333
4.723838,1775669122.347052,599617943154516826,999
4.731530,1775669122.347052,599617943154516826,490
4.739222,1775669122.347052,599617943154516826,616
4.746915,1775669122.347052,599617943154516826,885
4.754607,1775669122.347052,599617943154516826,340
4.762299,1775669122.347052,599617943154516826,919
4.769992,1775669122.347052,599617943154516826,611
4.777684,1775669122.347052,599617943154516826,486
4.785376,1775669122.347052,599617943154516826,997
4.793068,1775669122.347052,599617943154516826,378
4.800761,1775669122.347052,599617943154516826,803
4.808453,1775669122.347052,599617943154516826,808
4.816145,1775669122.347052,599617943154516826,358
4.823838,1775669122.347052,599617943154516826,949
4.831530,1775669122.347052,599617943154516826,483
4.839222,1775669122.347052,599617943154516826,620
4.846915,1775669122.347052,599617943154516826,892
4.854607,1775669122.347052,599617943154516826,333
4.862299,1775669122.347052,599617943154516826,892
4.869992,1775669122.347052,599617943154516826,609
4.877684,1775669122.347052,599617943154516826,456
4.885376,1775669122.347052,599617943154516826,965
4.893068,1775669122.347052,599617943154516826,401
4.900761,1775669122.347052,599617943154516826,789
4.908453,1775669122.347052,599617943154516826,730
4.916145,1775669122.347052,599617943154516826,308
4.923838,1775669122.347052,599617943154516826,963
4.931530,1775669122.347052,599617943154516826,470
4.939222,1775669122.347052,599617943154516826,545
4.946915,1775669122.347052,599617943154516826,810
4.954607,1775669122.347052,599617943154516826,244
4.962299,1775669122.347052,599617943154516826,819
4.969991,1775669122.347052,599617943154516826,529
4.977684,1775669122.347052,599617943154516826,351
4.985376,1775669122.347052,599617943154516826,906
4.993068,1775669122.347052,599617943154516826,296
5.000761,1775669122.347052,599617943154516826,630
5.008453,1775669122.347052,599617943154516826,659
5.016145,1775669122.347052,599617943154516826,241
5.023838,1775669122.347052,599617943154516826,851
5.031530,1775669122.347052,599617943154516826,385
5.039222,1775669122.347052,599617943154516826,472
5.046915,1775669122.347052,599617943154516826,746
5.054722,1775669122.977139,599617943716170098,171
5.062414,1775669122.977139,599617943716170098,753
5.070106,1775669122.977139,599617943716170098,502
5.077799,1775669122.977139,599617943716170098,312
5.085491,1775669122.977139,599617943716170098,858
5.093183,1775669122.977139,599617943716170098,237
5.100875,1775669122.977139,599617943716170098,586
5.108568,1775669122.977139,599617943716170098,677
5.116260,1775669122.977139,599617943716170098,271
5.123953,1775669122.977139,599617943716170098,881
5.131645,1775669122.977139,599617943716170098,401
5.139337,1775669122.977139,599617943716170098,488
5.147029,1775669122.977139,599617943716170098,773
5.154722,1775669122.977139,599617943716170098,182
5.162414,1775669122.977139,599617943716170098,821
5.170106,1775669122.977139,599617943716170098,568
5.177799,1775669122.977139,599617943716170098,303
5.185491,1775669122.977139,599617943716170098,874
5.193183,1775669122.977139,599617943716170098,255
5.200876,1775669122.977139,599617943716170098,616
5.208568,1775669122.977139,599617943716170098,748
5.216260,1775669122.977139,599617943716170098,232
5.223952,1775669122.977139,599617943716170098,803
5.231645,1775669122.977139,599617943716170098,404
5.239337,1775669122.977139,599617943716170098,467
5.247029,1775669122.977139,599617943716170098,787
5.254722,1775669122.977139,599617943716170098,214
5.262414,1775669122.977139,599617943716170098,744
5.270106,1775669122.977139,599617943716170098,454
5.277799,1775669122.977139,599617943716170098,246
5.285491,1775669122.977139,599617943716170098,958
5.293183,1775669122.977139,599617943716170098,344
5.300876,1775669122.977139,599617943716170098,545
5.308568,1775669122.977139,599617943716170098,707
5.316260,1775669122.977139,599617943716170098,276
5.323952,1775669122.977139,599617943716170098,776
5.331645,1775669122.977139,599617943716170098,321
5.339337,1775669122.977139,599617943716170098,449
5.347029,1775669122.977139,599617943716170098,808
5.354722,1775669122.977139,599617943716170098,184
5.362414,1775669122.977139,599617943716170098,732
5.370106,1775669122.977139,599617943716170098,506
5.377799,1775669122.977139,599617943716170098,235
5.385491,1775669122.977139,599617943716170098,867
5.393183,1775669122.977139,599617943716170098,301
5.400876,1775669122.977139,599617943716170098,570
5.408568,1775669122.977139,599617943716170098,693
5.416260,1775669122.977139,599617943716170098,221
5.423952,1775669122.977139,599617943716170098,778
5.431645,1775669122.977139,599617943716170098,337
5.439337,1775669122.977139,599617943716170098,406
5.447029,1775669122.977139,599617943716170098,796
5.454722,1775669122.977139,599617943716170098,155
5.462414,1775669122.977139,599617943716170098,646
5.470106,1775669122.977139,599617943716170098,522
5.477799,1775669122.977139,599617943716170098,303
5.485491,1775669122.977139,599617943716170098,826
5.493183,1775669122.977139,599617943716170098,239
5.500875,1775669122.977139,599617943716170098,563
5.508568,1775669122.977139,599617943716170098,650
5.516260,1775669122.977139,599617943716170098,173
5.523952,1775669122.977139,599617943716170098,842
5.531645,1775669122.977139,599617943716170098,404
5.539337,1775669122.977139,599617943716170098,388
5.547029,1775669122.977139,599617943716170098,792
5.554722,1775669122.977139,599617943716170098,171
5.562414,1775669122.977139,599617943716170098,680
5.570106,1775669122.977139,599617943716170098,570
5.577799,1775669122.977139,599617943716170098,267
5.585491,1775669122.977139,599617943716170098,785
5.593183,1775669122.977139,599617943716170098,237
5.600875,1775669122.977139,599617943716170098,536
5.608568,1775669122.977139,599617943716170098,677
5.616375,1775669123.472392,599617944277823370,214
5.624067,1775669123.472392,599617944277823370,808
5.631760,1775669123.472392,599617944277823370,378
5.639452,1775669123.472392,599617944277823370,381
5.647144,1775669123.472392,599617944277823370,764
5.654836,1775669123.472392,599617944277823370,166
5.662529,1775669123.472392,599617944277823370,696
5.670221,1775669123.472392,599617944277823370,538
5.677913,1775669123.472392,599617944277823370,207
5.685606,1775669123.472392,599617944277823370,725
5.693298,1775669123.472392,599617944277823370,166
5.700990,1775669123.472392,599617944277823370,559
5.708683,1775669123.472392,599617944277823370,760
5.716375,1775669123.472392,599617944277823370,175
5.724067,1775669123.472392,599617944277823370,760
5.731760,1775669123.472392,599617944277823370,426
5.739452,1775669123.472392,599617944277823370,410
5.747144,1775669123.472392,599617944277823370,782
5.754836,1775669123.472392,599617944277823370,166
5.762529,1775669123.472392,599617944277823370,659
5.770221,1775669123.472392,599617944277823370,534
5.777913,1775669123.472392,599617944277823370,182
5.785606,1775669123.472392,599617944277823370,732
5.793298,1775669123.472392,599617944277823370,271
5.800990,1775669123.472392,599617944277823370,552
5.808683,1775669123.472392,599617944277823370,655
5.816375,1775669123.472392,599617944277823370,157
5.824067,1775669123.472392,599617944277823370,771
5.831760,1775669123.472392,599617944277823370,362
5.839452,1775669123.472392,599617944277823370,365
5.847144,1775669123.472392,599617944277823370,814
5.854836,1775669123.472392,599617944277823370,175
5.862529,1775669123.472392,599617944277823370,648
5.870221,1775669123.472392,599617944277823370,559
5.877913,1775669123.472392,599617944277823370,262
5.885606,1775669123.472392,599617944277823370,865
5.893298,1775669123.472392,599617944277823370,292
5.900990,1775669123.472392,599617944277823370,463
5.908683,1775669123.472392,599617944277823370,623
5.916375,1775669123.472392,599617944277823370,125
5.924067,1775669123.472392,599617944277823370,725
5.931760,1775669123.472392,599617944277823370,358
5.939452,1775669123.472392,599617944277823370,344
5.947144,1775669123.472392,599617944277823370,787
5.954836,1775669123.472392,599617944277823370,114
5.962529,1775669123.472392,599617944277823370,529
5.970221,1775669123.472392,599617944277823370,410
5.977913,1775669123.472392,599617944277823370,143
5.985606,1775669123.472392,599617944277823370,851
5.993298,1775669123.472392,599617944277823370,237
6.000990,1775669123.472392,599617944277823370,378
6.008683,1775669123.472392,599617944277823370,684
6.016375,1775669123.472392,599617944277823370,180
6.024067,1775669123.472392,599617944277823370,707
6.031760,1775669123.472392,599617944277823370,381
6.039452,1775669123.472392,599617944277823370,330
6.047144,1775669123.472392,599617944277823370,721
6.054837,1775669123.472392,599617944277823370,109
6.062529,1775669123.472392,599617944277823370,595
6.070221,1775669123.472392,599617944277823370,513
6.077913,1775669123.472392,599617944277823370,162
6.085606,1775669123.472392,599617944277823370,760
6.093298,1775669123.472392,599617944277823370,207
6.100990,1775669123.472392,599617944277823370,424
6.108683,1775669123.472392,599617944277823370,693
6.116375,1775669123.472392,599617944277823370,152
6.124067,1775669123.472392,599617944277823370,723
6.131760,1775669123.472392,599617944277823370,410
6.139452,1775669123.472392,599617944277823370,289
6.147144,1775669123.472392,599617944277823370,721
6.154836,1775669123.472392,599617944277823370,173
6.162529,1775669123.472392,599617944277823370,636
6.170221,1775669123.472392,599617944277823370,527
6.177998,1775669123.968974,599617944839446124,132
6.185690,1775669123.968974,599617944839446124,739
6.193382,1775669123.968974,599617944839446124,253
6.201075,1775669123.968974,599617944839446124,440
6.208767,1775669123.968974,599617944839446124,668
6.216459,1775669123.968974,599617944839446124,150
6.224152,1775669123.968974,599617944839446124,673
6.231844,1775669123.968974,599617944839446124,267
6.239536,1775669123.968974,599617944839446124,260
6.247229,1775669123.968974,599617944839446124,853
6.254921,1775669123.968974,599617944839446124,210
6.262613,1775669123.968974,599617944839446124,593
6.270306,1775669123.968974,599617944839446124,554
6.277998,1775669123.968974,599617944839446124,175
6.285690,1775669123.968974,599617944839446124,810
6.293382,1775669123.968974,599617944839446124,324
6.301075,1775669123.968974,599617944839446124,456
6.308767,1775669123.968974,599617944839446124,707
6.316459,1775669123.968974,599617944839446124,182
6.324152,1775669123.968974,599617944839446124,744
6.331844,1775669123.968974,599617944839446124,445
6.339536,1775669123.968974,599617944839446124,328
6.347229,1775669123.968974,599617944839446124,787
6.354921,1775669123.968974,599617944839446124,200
6.362613,1775669123.968974,599617944839446124,563
6.370306,1775669123.968974,599617944839446124,509
6.377998,1775669123.968974,599617944839446124,221
6.385690,1775669123.968974,599617944839446124,821
6.393382,1775669123.968974,599617944839446124,244
6.401075,1775669123.968974,599617944839446124,399
6.408767,1775669123.968974,599617944839446124,614
6.416459,1775669123.968974,599617944839446124,59
6.424152,1775669123.968974,599617944839446124,741
6.431844,1775669123.968974,599617944839446124,465
6.439536,1775669123.968974,599617944839446124,292
6.447229,1775669123.968974,599617944839446124,803
6.454921,1775669123.968974,599617944839446124,168
6.462613,1775669123.968974,599617944839446124,518
6.470305,1775669123.968974,599617944839446124,552
6.477998,1775669123.968974,599617944839446124,168
6.485690,1775669123.968974,599617944839446124,735
6.493382,1775669123.968974,599617944839446124,264
6.501075,1775669123.968974,599617944839446124,401
6.508767,1775669123.968974,599617944839446124,666
6.516459,1775669123.968974,599617944839446124,134
6.524152,1775669123.968974,599617944839446124,630
6.531844,1775669123.968974,599617944839446124,324
6.539536,1775669123.968974,599617944839446124,310
6.547229,1775669123.968974,599617944839446124,782
6.554921,1775669123.968974,599617944839446124,52
6.562613,1775669123.968974,599617944839446124,509
6.570305,1775669123.968974,599617944839446124,568
6.577998,1775669123.968974,599617944839446124,95
6.585690,1775669123.968974,599617944839446124,648
6.593382,1775669123.968974,599617944839446124,173
6.601075,1775669123.968974,599617944839446124,385
6.608767,1775669123.968974,599617944839446124,723
6.616459,1775669123.968974,599617944839446124,111
6.624152,1775669123.968974,599617944839446124,636
6.631844,1775669123.968974,599617944839446124,397
6.639536,1775669123.968974,599617944839446124,232
6.647229,1775669123.968974,599617944839446124,735
6.654921,1775669123.968974,599617944839446124,150
6.662613,1775669123.968974,599617944839446124,474
6.670305,1775669123.968974,599617944839446124,470
6.677998,1775669123.968974,599617944839446124,120
6.685690,1775669123.968974,599617944839446124,753
6.693382,1775669123.968974,599617944839446124,248
6.701075,1775669123.968974,599617944839446124,333
6.708767,1775669123.968974,599617944839446124,636
6.716459,1775669123.968974,599617944839446124,100
6.724152,1775669123.968974,599617944839446124,657
6.731844,1775669123.968974,599617944839446124,376
6.739651,1775669124.642940,599617945401099396,189
6.747343,1775669124.642940,599617945401099396,730
6.755036,1775669124.642940,599617945401099396,173
6.762728,1775669124.642940,599617945401099396,495
6.770420,1775669124.642940,599617945401099396,426
6.778113,1775669124.642940,599617945401099396,54
6.785805,1775669124.642940,599617945401099396,842
6.793497,1775669124.642940,599617945401099396,346
6.801190,1775669124.642940,599617945401099396,326
6.808882,1775669124.642940,599617945401099396,689
6.816574,1775669124.642940,599617945401099396,155
6.824266,1775669124.642940,599617945401099396,664
6.831959,1775669124.642940,599617945401099396,442
6.839651,1775669124.642940,599617945401099396,257
6.847343,1775669124.642940,599617945401099396,746
6.855036,1775669124.642940,599617945401099396,166
6.862728,1775669124.642940,599617945401099396,556
6.870420,1775669124.642940,599617945401099396,616
6.878113,1775669124.642940,599617945401099396,150
6.885805,1775669124.642940,599617945401099396,703
6.893497,1775669124.642940,599617945401099396,225
6.901190,1775669124.642940,599617945401099396,324
6.908882,1775669124.642940,599617945401099396,661
6.916574,1775669124.642940,599617945401099396,73
6.924266,1775669124.642940,599617945401099396,636
6.931959,1775669124.642940,599617945401099396,442
6.939651,1775669124.642940,599617945401099396,180
6.947343,1775669124.642940,599617945401099396,680
6.955036,1775669124.642940,599617945401099396,191
6.962728,1775669124.642940,599617945401099396,609
6.970420,1775669124.642940,599617945401099396,636
6.978113,1775669124.642940,599617945401099396,134
6.985805,1775669124.642940,599617945401099396,725
6.993497,1775669124.642940,599617945401099396,299
7.001189,1775669124.642940,599617945401099396,378
7.008882,1775669124.642940,599617945401099396,700
7.016574,1775669124.642940,599617945401099396,114
7.024266,1775669124.642940,599617945401099396,689
7.031959,1775669124.642940,599617945401099396,493
7.039651,1775669124.642940,599617945401099396,216
7.047343,1775669124.642940,599617945401099396,766
7.055036,1775669124.642940,599617945401099396,225
7.062728,1775669124.642940,599617945401099396,527
7.070420,1775669124.642940,599617945401099396,607
7.078113,1775669124.642940,599617945401099396,141
7.085805,1775669124.642940,599617945401099396,712
7.093497,1775669124.642940,599617945401099396,289
7.101189,1775669124.642940,599617945401099396,349
7.108882,1775669124.642940,599617945401099396,652
7.116574,1775669124.642940,599617945401099396,27
7.124266,1775669124.642940,599617945401099396,643
7.131959,1775669124.642940,599617945401099396,538
7.139651,1775669124.642940,599617945401099396,203
7.147343,1775669124.642940,599617945401099396,737
7.155036,1775669124.642940,599617945401099396,223
7.162728,1775669124.642940,599617945401099396,472
7.170420,1775669124.642940,599617945401099396,534
7.178113,1775669124.642940,599617945401099396,98
7.185805,1775669124.642940,599617945401099396,709
7.193497,1775669124.642940,599617945401099396,264
7.201190,1775669124.642940,599617945401099396,292
7.208882,1775669124.642940,599617945401099396,684
7.216574,1775669124.642940,599617945401099396,93
7.224266,1775669124.642940,599617945401099396,586
7.231959,1775669124.642940,599617945401099396,438
7.239651,1775669124.642940,599617945401099396,175
7.247343,1775669124.642940,599617945401099396,693
7.255036,1775669124.642940,599617945401099396,182
7.262728,1775669124.642940,599617945401099396,504
7.270420,1775669124.642940,599617945401099396,577
7.278113,1775669124.642940,599617945401099396,130
7.285805,1775669124.642940,599617945401099396,735
7.293497,1775669124.642940,599617945401099396,283
7.301284,1775669125.137961,599617945962732322,324
7.308976,1775669125.137961,599617945962732322,689
7.316669,1775669125.137961,599617945962732322,89
7.324361,1775669125.137961,599617945962732322,691
7.332053,1775669125.137961,599617945962732322,529
7.339745,1775669125.137961,599617945962732322,182
7.347438,1775669125.137961,599617945962732322,746
7.355130,1775669125.137961,599617945962732322,203
7.362822,1775669125.137961,599617945962732322,486
7.370515,1775669125.137961,599617945962732322,639
7.378207,1775669125.137961,599617945962732322,162
7.385899,1775669125.137961,599617945962732322,757
7.393592,1775669125.137961,599617945962732322,358
7.401284,1775669125.137961,599617945962732322,326
7.408976,1775669125.137961,599617945962732322,682
7.416669,1775669125.137961,599617945962732322,127
7.424361,1775669125.137961,599617945962732322,655
7.432053,1775669125.137961,599617945962732322,479
7.439745,1775669125.137961,599617945962732322,182
7.447438,1775669125.137961,599617945962732322,705
7.455130,1775669125.137961,599617945962732322,155
7.462822,1775669125.137961,599617945962732322,502
7.470515,1775669125.137961,599617945962732322,632
7.478207,1775669125.137961,599617945962732322,102
7.485899,1775669125.137961,599617945962732322,677
7.493592,1775669125.137961,599617945962732322,246
7.501284,1775669125.137961,599617945962732322,317
7.508976,1775669125.137961,599617945962732322,789
7.516669,1775669125.137961,599617945962732322,123
7.524361,1775669125.137961,599617945962732322,579
7.532053,1775669125.137961,599617945962732322,477
7.539745,1775669125.137961,599617945962732322,175
7.547438,1775669125.137961,599617945962732322,748
7.555130,1775669125.137961,599617945962732322,219
7.562822,1775669125.137961,599617945962732322,472
7.570515,1775669125.137961,599617945962732322,618
7.578207,1775669125.137961,599617945962732322,116
7.585899,1775669125.137961,599617945962732322,705
7.593592,1775669125.137961,599617945962732322,340
7.601284,1775669125.137961,599617945962732322,340
7.608976,1775669125.137961,599617945962732322,746
7.616669,1775669125.137961,599617945962732322,141
7.624361,1775669125.137961,599617945962732322,614
7.632053,1775669125.137961,599617945962732322,490
7.639745,1775669125.137961,599617945962732322,212
7.647438,1775669125.137961,599617945962732322,796
7.655130,1775669125.137961,599617945962732322,219
7.662822,1775669125.137961,599617945962732322,461
7.670515,1775669125.137961,599617945962732322,618
7.678207,1775669125.137961,599617945962732322,105
7.685899,1775669125.137961,599617945962732322,773
7.693592,1775669125.137961,599617945962732322,401
7.701284,1775669125.137961,599617945962732322,310
7.708976,1775669125.137961,599617945962732322,751
7.716668,1775669125.137961,599617945962732322,164
7.724361,1775669125.137961,599617945962732322,620
7.732053,1775669125.137961,599617945962732322,531
7.739745,1775669125.137961,599617945962732322,228
7.747438,1775669125.137961,599617945962732322,746
7.755130,1775669125.137961,599617945962732322,196
7.762822,1775669125.137961,599617945962732322,536
7.770515,1775669125.137961,599617945962732322,712
7.778207,1775669125.137961,599617945962732322,111
7.785899,1775669125.137961,599617945962732322,737
7.793592,1775669125.137961,599617945962732322,397
7.801284,1775669125.137961,599617945962732322,310
7.808976,1775669125.137961,599617945962732322,755
7.816669,1775669125.137961,599617945962732322,173
7.824361,1775669125.137961,599617945962732322,643
7.832053,1775669125.137961,599617945962732322,570
7.839745,1775669125.137961,599617945962732322,225
7.847438,1775669125.137961,599617945962732322,753
7.855130,1775669125.137961,599617945962732322,212
7.862897,1775669125.678287,599617946524344904,522
7.870589,1775669125.678287,599617946524344904,735
7.878281,1775669125.678287,599617946524344904,157
7.885973,1775669125.678287,599617946524344904,780
7.893666,1775669125.678287,599617946524344904,451
7.901358,1775669125.678287,599617946524344904,351
7.909050,1775669125.678287,599617946524344904,808
7.916743,1775669125.678287,599617946524344904,225
7.924435,1775669125.678287,599617946524344904,682
7.932127,1775669125.678287,599617946524344904,616
7.939820,1775669125.678287,599617946524344904,269
7.947512,1775669125.678287,599617946524344904,853
7.955204,1775669125.678287,599617946524344904,315
7.962897,1775669125.678287,599617946524344904,497
7.970589,1775669125.678287,599617946524344904,714
7.978281,1775669125.678287,599617946524344904,173
7.985973,1775669125.678287,599617946524344904,739
7.993666,1775669125.678287,599617946524344904,413
8.001358,1775669125.678287,599617946524344904,360
8.009050,1775669125.678287,599617946524344904,833
8.016743,1775669125.678287,599617946524344904,184
8.024435,1775669125.678287,599617946524344904,515
8.032127,1775669125.678287,599617946524344904,534
8.039820,1775669125.678287,599617946524344904,360
8.047512,1775669125.678287,599617946524344904,821
8.055204,1775669125.678287,599617946524344904,200
8.062896,1775669125.678287,599617946524344904,538
8.070589,1775669125.678287,599617946524344904,762
8.078281,1775669125.678287,599617946524344904,146
8.085974,1775669125.678287,599617946524344904,796
8.093666,1775669125.678287,599617946524344904,483
8.101358,1775669125.678287,599617946524344904,319
8.109050,1775669125.678287,599617946524344904,812
8.116743,1775669125.678287,599617946524344904,221
8.124435,1775669125.678287,599617946524344904,634
8.132127,1775669125.678287,599617946524344904,616
8.139820,1775669125.678287,599617946524344904,251
8.147512,1775669125.678287,599617946524344904,835
8.155204,1775669125.678287,599617946524344904,342
8.162897,1775669125.678287,599617946524344904,541
8.170589,1775669125.678287,599617946524344904,771
8.178281,1775669125.678287,599617946524344904,219
8.185973,1775669125.678287,599617946524344904,798
8.193666,1775669125.678287,599617946524344904,461
8.201358,1775669125.678287,599617946524344904,319
8.209050,1775669125.678287,599617946524344904,771
8.216743,1775669125.678287,599617946524344904,207
8.224435,1775669125.678287,599617946524344904,748
8.232127,1775669125.678287,599617946524344904,689
8.239820,1775669125.678287,599617946524344904,219
8.247512,1775669125.678287,599617946524344904,856
8.255204,1775669125.678287,599617946524344904,321
8.262897,1775669125.678287,599617946524344904,481
8.270589,1775669125.678287,599617946524344904,844
8.278281,1775669125.678287,599617946524344904,257
8.285973,1775669125.678287,599617946524344904,780
8.293666,1775669125.678287,599617946524344904,527
8.301358,1775669125.678287,599617946524344904,372
8.309050,1775669125.678287,599617946524344904,840
8.316743,1775669125.678287,599617946524344904,257
8.324435,1775669125.678287,599617946524344904,655
8.332127,1775669125.678287,599617946524344904,639
8.339820,1775669125.678287,599617946524344904,230
8.347512,1775669125.678287,599617946524344904,814
8.355204,1775669125.678287,599617946524344904,358
8.362897,1775669125.678287,599617946524344904,545
8.370589,1775669125.678287,599617946524344904,773
8.378281,1775669125.678287,599617946524344904,173
8.385973,1775669125.678287,599617946524344904,771
8.393666,1775669125.678287,599617946524344904,472
8.401358,1775669125.678287,599617946524344904,337
8.409050,1775669125.678287,599617946524344904,917
8.416743,1775669125.678287,599617946524344904,287
8.424540,1775669126.264618,599617947085988002,636
8.432232,1775669126.264618,599617947085988002,671
8.439924,1775669126.264618,599617947085988002,257
8.447616,1775669126.264618,599617947085988002,874
8.455309,1775669126.264618,599617947085988002,399
8.463001,1775669126.264618,599617947085988002,493
8.470693,1775669126.264618,599617947085988002,782
8.478386,1775669126.264618,599617947085988002,219
8.486078,1775669126.264618,599617947085988002,787
8.493770,1775669126.264618,599617947085988002,559
8.501463,1775669126.264618,599617947085988002,383
8.509155,1775669126.264618,599617947085988002,871
8.516847,1775669126.264618,599617947085988002,278
8.524540,1775669126.264618,599617947085988002,650
8.532232,1775669126.264618,599617947085988002,680
8.539924,1775669126.264618,599617947085988002,296
8.547616,1775669126.264618,599617947085988002,906
8.555309,1775669126.264618,599617947085988002,390
8.563001,1775669126.264618,599617947085988002,493
8.570693,1775669126.264618,599617947085988002,821
8.578386,1775669126.264618,599617947085988002,253
8.586078,1775669126.264618,599617947085988002,817
8.593770,1775669126.264618,599617947085988002,559
8.601463,1775669126.264618,599617947085988002,351
8.609155,1775669126.264618,599617947085988002,878
8.616847,1775669126.264618,599617947085988002,299
8.624539,1775669126.264618,599617947085988002,673
8.632232,1775669126.264618,599617947085988002,712
8.639924,1775669126.264618,599617947085988002,260
8.647617,1775669126.264618,599617947085988002,885
8.655309,1775669126.264618,599617947085988002,433
8.663001,1775669126.264618,599617947085988002,531
8.670693,1775669126.264618,599617947085988002,867
8.678386,1775669126.264618,599617947085988002,262
8.686078,1775669126.264618,599617947085988002,794
8.693770,1775669126.264618,599617947085988002,559
8.701463,1775669126.264618,599617947085988002,349
8.709155,1775669126.264618,599617947085988002,903
8.716847,1775669126.264618,599617947085988002,333
8.724540,1775669126.264618,599617947085988002,671
8.732232,1775669126.264618,599617947085988002,721
8.739924,1775669126.264618,599617947085988002,294
8.747616,1775669126.264618,599617947085988002,887
8.755309,1775669126.264618,599617947085988002,374
8.763001,1775669126.264618,599617947085988002,506
8.770693,1775669126.264618,599617947085988002,926
8.778386,1775669126.264618,599617947085988002,267
8.786078,1775669126.264618,599617947085988002,737
8.793770,1775669126.264618,599617947085988002,525
8.801463,1775669126.264618,599617947085988002,351
8.809155,1775669126.264618,599617947085988002,974
8.816847,1775669126.264618,599617947085988002,365
8.824540,1775669126.264618,599617947085988002,639
8.832232,1775669126.264618,599617947085988002,707
8.839924,1775669126.264618,599617947085988002,244
8.847616,1775669126.264618,599617947085988002,871
8.855309,1775669126.264618,599617947085988002,449
8.863001,1775669126.264618,599617947085988002,493
8.870693,1775669126.264618,599617947085988002,833
8.878386,1775669126.264618,599617947085988002,246
8.886078,1775669126.264618,599617947085988002,787
8.893770,1775669126.264618,599617947085988002,614
8.901463,1775669126.264618,599617947085988002,404
8.909155,1775669126.264618,599617947085988002,931
8.916847,1775669126.264618,599617947085988002,321
8.924540,1775669126.264618,599617947085988002,611
8.932232,1775669126.264618,599617947085988002,675
8.939924,1775669126.264618,599617947085988002,280
8.947616,1775669126.264618,599617947085988002,963
8.955309,1775669126.264618,599617947085988002,515
8.963001,1775669126.264618,599617947085988002,556
8.970693,1775669126.264618,599617947085988002,908
8.978386,1775669126.264618,599617947085988002,271
8.986168,1775669126.893648,599617947647615842,812
8.993860,1775669126.893648,599617947647615842,648
9.001552,1775669126.893648,599617947647615842,362
9.009244,1775669126.893648,599617947647615842,894
9.016937,1775669126.893648,599617947647615842,344
9.024629,1775669126.893648,599617947647615842,684
9.032321,1775669126.893648,599617947647615842,817
9.040014,1775669126.893648,599617947647615842,333
9.047706,1775669126.893648,599617947647615842,890
9.055398,1775669126.893648,599617947647615842,392
9.063091,1775669126.893648,599617947647615842,461
9.070783,1775669126.893648,599617947647615842,961
9.078475,1775669126.893648,599617947647615842,333
9.086168,1775669126.893648,599617947647615842,819
9.093860,1775669126.893648,599617947647615842,719
9.101552,1775669126.893648,599617947647615842,431
9.109244,1775669126.893648,599617947647615842,910
9.116937,1775669126.893648,599617947647615842,333
9.124629,1775669126.893648,599617947647615842,598
9.132321,1775669126.893648,599617947647615842,648
9.140014,1775669126.893648,599617947647615842,203
9.147706,1775669126.893648,599617947647615842,858
9.155398,1775669126.893648,599617947647615842,399
9.163091,1775669126.893648,599617947647615842,426
9.170783,1775669126.893648,599617947647615842,869
9.178475,1775669126.893648,599617947647615842,251
9.186167,1775669126.893648,599617947647615842,753
9.193860,1775669126.893648,599617947647615842,636
9.201552,1775669126.893648,599617947647615842,358
9.209244,1775669126.893648,599617947647615842,910
9.216937,1775669126.893648,599617947647615842,360
9.224629,1775669126.893648,599617947647615842,618
9.232321,1775669126.893648,599617947647615842,673
9.240014,1775669126.893648,599617947647615842,123
9.247706,1775669126.893648,599617947647615842,773
9.255398,1775669126.893648,599617947647615842,470
9.263091,1775669126.893648,599617947647615842,513
9.270783,1775669126.893648,599617947647615842,913
9.278475,1775669126.893648,599617947647615842,292
9.286168,1775669126.893648,599617947647615842,741
9.293860,1775669126.893648,599617947647615842,598
9.301552,1775669126.893648,599617947647615842,356
9.309244,1775669126.893648,599617947647615842,935
9.316937,1775669126.893648,599617947647615842,360
9.324629,1775669126.893648,599617947647615842,614
9.332321,1775669126.893648,599617947647615842,766
9.340014,1775669126.893648,599617947647615842,317
9.347706,1775669126.893648,599617947647615842,956
9.355398,1775669126.893648,599617947647615842,550
9.363091,1775669126.893648,599617947647615842,504
9.370783,1775669126.893648,599617947647615842,894
9.378475,1775669126.893648,599617947647615842,292
9.386168,1775669126.893648,599617947647615842,787
9.393860,1775669126.893648,599617947647615842,671
9.401552,1775669126.893648,599617947647615842,333
9.409244,1775669126.893648,599617947647615842,846
9.416937,1775669126.893648,599617947647615842,310
9.424629,1775669126.893648,599617947647615842,552
9.432321,1775669126.893648,599617947647615842,684
9.440014,1775669126.893648,599617947647615842,253
9.447706,1775669126.893648,599617947647615842,865
9.455398,1775669126.893648,599617947647615842,431
9.463091,1775669126.893648,599617947647615842,406
9.470783,1775669126.893648,599617947647615842,828
9.478475,1775669126.893648,599617947647615842,221
9.486168,1775669126.893648,599617947647615842,709
9.493860,1775669126.893648,599617947647615842,604
9.501552,1775669126.893648,599617947647615842,287
9.509244,1775669126.893648,599617947647615842,842
9.516937,1775669126.893648,599617947647615842,287
9.524629,1775669126.893648,599617947647615842,536
9.532321,1775669126.893648,599617947647615842,721
9.540014,1775669126.893648,599617947647615842,216
9.547826,1775669127.387344,599617948209274200,803
9.555518,1775669127.387344,599617948209274200,431
9.563210,1775669127.387344,599617948209274200,383
9.570903,1775669127.387344,599617948209274200,794
9.578595,1775669127.387344,599617948209274200,189
9.586287,1775669127.387344,599617948209274200,677
9.593980,1775669127.387344,599617948209274200,588
9.601672,1775669127.387344,599617948209274200,244
9.609364,1775669127.387344,599617948209274200,794
9.617057,1775669127.387344,599617948209274200,257
9.624749,1775669127.387344,599617948209274200,518
9.632441,1775669127.387344,599617948209274200,732
9.640134,1775669127.387344,599617948209274200,203
9.647826,1775669127.387344,599617948209274200,712
9.655518,1775669127.387344,599617948209274200,333
9.663211,1775669127.387344,599617948209274200,376
9.670903,1775669127.387344,599617948209274200,826
9.678595,1775669127.387344,599617948209274200,168
9.686287,1775669127.387344,599617948209274200,616
9.693980,1775669127.387344,599617948209274200,467
9.701672,1775669127.387344,599617948209274200,146
9.709364,1775669127.387344,599617948209274200,858
9.717057,1775669127.387344,599617948209274200,292
9.724749,1775669127.387344,599617948209274200,440
9.732441,1775669127.387344,599617948209274200,689
9.740134,1775669127.387344,599617948209274200,166
9.747826,1775669127.387344,599617948209274200,707
9.755518,1775669127.387344,599617948209274200,353
9.763211,1775669127.387344,599617948209274200,283
9.770903,1775669127.387344,599617948209274200,732
9.778595,1775669127.387344,599617948209274200,157
9.786287,1775669127.387344,599617948209274200,591
9.793980,1775669127.387344,599617948209274200,511
9.801672,1775669127.387344,599617948209274200,207
9.809364,1775669127.387344,599617948209274200,776
9.817057,1775669127.387344,599617948209274200,228
9.824749,1775669127.387344,599617948209274200,447
9.832441,1775669127.387344,599617948209274200,671
9.840134,1775669127.387344,599617948209274200,157
9.847826,1775669127.387344,599617948209274200,714
9.855518,1775669127.387344,599617948209274200,340
9.863211,1775669127.387344,599617948209274200,267
9.870903,1775669127.387344,599617948209274200,693
9.878595,1775669127.387344,599617948209274200,95
9.886287,1775669127.387344,599617948209274200,609
9.893980,1775669127.387344,599617948209274200,531
9.901672,1775669127.387344,599617948209274200,134
9.909364,1775669127.387344,599617948209274200,748
9.917057,1775669127.387344,599617948209274200,189
9.924749,1775669127.387344,599617948209274200,310
9.932441,1775669127.387344,599617948209274200,689
9.940134,1775669127.387344,599617948209274200,260
9.947826,1775669127.387344,599617948209274200,664
9.955518,1775669127.387344,599617948209274200,349
9.963210,1775669127.387344,599617948209274200,340
9.970903,1775669127.387344,599617948209274200,712
9.978595,1775669127.387344,599617948209274200,159
9.986287,1775669127.387344,599617948209274200,664
9.993980,1775669127.387344,599617948209274200,545
10.001672,1775669127.387344,599617948209274200,187
10.009364,1775669127.387344,599617948209274200,808
10.017057,1775669127.387344,599617948209274200,260
10.024749,1775669127.387344,599617948209274200,426
10.032441,1775669127.387344,599617948209274200,675
10.040134,1775669127.387344,599617948209274200,157
10.047826,1775669127.387344,599617948209274200,739
10.055518,1775669127.387344,599617948209274200,404
10.063210,1775669127.387344,599617948209274200,303
10.070903,1775669127.387344,599617948209274200,773
10.078595,1775669127.387344,599617948209274200,125
10.086287,1775669127.387344,599617948209274200,522
10.093980,1775669127.387344,599617948209274200,509
10.101672,1775669127.387344,599617948209274200,120
10.109479,1775669127.927760,599617948770927474,691
10.117171,1775669127.927760,599617948770927474,212
10.124864,1775669127.927760,599617948770927474,401
10.132556,1775669127.927760,599617948770927474,643
10.140248,1775669127.927760,599617948770927474,82
10.147941,1775669127.927760,599617948770927474,666
10.155633,1775669127.927760,599617948770927474,470
10.163325,1775669127.927760,599617948770927474,408
10.171018,1775669127.927760,599617948770927474,792
10.178710,1775669127.927760,599617948770927474,164
10.186402,1775669127.927760,599617948770927474,614
10.194094,1775669127.927760,599617948770927474,550
10.201787,1775669127.927760,599617948770927474,155
10.209479,1775669127.927760,599617948770927474,755
10.217171,1775669127.927760,599617948770927474,219
10.224864,1775669127.927760,599617948770927474,383
10.232556,1775669127.927760,599617948770927474,684
10.240248,1775669127.927760,599617948770927474,125
10.247941,1775669127.927760,599617948770927474,675
10.255633,1775669127.927760,599617948770927474,404
10.263325,1775669127.927760,599617948770927474,253
10.271018,1775669127.927760,599617948770927474,664
10.278710,1775669127.927760,599617948770927474,100
10.286402,1775669127.927760,599617948770927474,602
10.294094,1775669127.927760,599617948770927474,572
10.301787,1775669127.927760,599617948770927474,152
10.309479,1775669127.927760,599617948770927474,792
10.317171,1775669127.927760,599617948770927474,310
10.324864,1775669127.927760,599617948770927474,410
10.332556,1775669127.927760,599617948770927474,684
10.340248,1775669127.927760,599617948770927474,187
10.347941,1775669127.927760,599617948770927474,725
10.355633,1775669127.927760,599617948770927474,369
10.363325,1775669127.927760,599617948770927474,207
10.371017,1775669127.927760,599617948770927474,728
10.378710,1775669127.927760,599617948770927474,171
10.386402,1775669127.927760,599617948770927474,559
10.394094,1775669127.927760,599617948770927474,531
10.401787,1775669127.927760,599617948770927474,132
10.409479,1775669127.927760,599617948770927474,739
10.417171,1775669127.927760,599617948770927474,239
10.424864,1775669127.927760,599617948770927474,362
10.432556,1775669127.927760,599617948770927474,684
10.440248,1775669127.927760,599617948770927474,132
10.447941,1775669127.927760,599617948770927474,630
10.455633,1775669127.927760,599617948770927474,344
10.463325,1775669127.927760,599617948770927474,239
10.471017,1775669127.927760,599617948770927474,808
10.478710,1775669127.927760,599617948770927474,207
10.486402,1775669127.927760,599617948770927474,522
10.494094,1775669127.927760,599617948770927474,536
10.501787,1775669127.927760,599617948770927474,171
10.509479,1775669127.927760,599617948770927474,785
10.517171,1775669127.927760,599617948770927474,326
10.524864,1775669127.927760,599617948770927474,465
10.532556,1775669127.927760,599617948770927474,732
10.540248,1775669127.927760,599617948770927474,125
10.547941,1775669127.927760,599617948770927474,652
10.555633,1775669127.927760,599617948770927474,420
10.563325,1775669127.927760,599617948770927474,280
10.571018,1775669127.927760,599617948770927474,773
10.578710,1775669127.927760,599617948770927474,168
10.586402,1775669127.927760,599617948770927474,515
10.594094,1775669127.927760,599617948770927474,511
10.601787,1775669127.927760,599617948770927474,89
10.609479,1775669127.927760,599617948770927474,625
10.617171,1775669127.927760,599617948770927474,216
10.624864,1775669127.927760,599617948770927474,467
10.632556,1775669127.927760,599617948770927474,620
10.640248,1775669127.927760,599617948770927474,-25
10.647941,1775669127.927760,599617948770927474,732
10.655633,1775669127.927760,599617948770927474,509
10.663325,1775669127.927760,599617948770927474,182
10.671082,1775669128.514742,599617949332529882,693
10.678774,1775669128.514742,599617949332529882,168
10.686466,1775669128.514742,599617949332529882,511
10.694158,1775669128.514742,599617949332529882,559
10.701851,1775669128.514742,599617949332529882,159
10.709543,1775669128.514742,599617949332529882,721
10.717235,1775669128.514742,599617949332529882,241
10.724928,1775669128.514742,599617949332529882,324
10.732620,1775669128.514742,599617949332529882,604
10.740312,1775669128.514742,599617949332529882,98
10.748005,1775669128.514742,599617949332529882,703
10.755697,1775669128.514742,599617949332529882,417
10.763389,1775669128.514742,599617949332529882,194
10.771082,1775669128.514742,599617949332529882,719
10.778774,1775669128.514742,599617949332529882,132
10.786466,1775669128.514742,599617949332529882,541
10.794158,1775669128.514742,599617949332529882,655
10.801851,1775669128.514742,599617949332529882,196
10.809543,1775669128.514742,599617949332529882,746
10.817235,1775669128.514742,599617949332529882,285
10.824928,1775669128.514742,599617949332529882,390
10.832620,1775669128.514742,599617949332529882,737
10.840312,1775669128.514742,599617949332529882,146
10.848005,1775669128.514742,599617949332529882,643
10.855697,1775669128.514742,599617949332529882,404
10.863389,1775669128.514742,599617949332529882,205
10.871081,1775669128.514742,599617949332529882,778
10.878774,1775669128.514742,599617949332529882,267
10.886466,1775669128.514742,599617949332529882,604
10.894158,1775669128.514742,599617949332529882,643
10.901851,1775669128.514742,599617949332529882,189
10.909543,1775669128.514742,599617949332529882,728
10.917235,1775669128.514742,599617949332529882,246
10.924928,1775669128.514742,599617949332529882,356
10.932620,1775669128.514742,599617949332529882,696
10.940312,1775669128.514742,599617949332529882,84
10.948005,1775669128.514742,599617949332529882,591
10.955697,1775669128.514742,599617949332529882,367
10.963389,1775669128.514742,599617949332529882,132
10.971081,1775669128.514742,599617949332529882,668
10.978774,1775669128.514742,599617949332529882,95
10.986466,1775669128.514742,599617949332529882,401
10.994158,1775669128.514742,599617949332529882,461
11.001851,1775669128.514742,599617949332529882,6
11.009543,1775669128.514742,599617949332529882,632
11.017235,1775669128.514742,599617949332529882,216
11.024928,1775669128.514742,599617949332529882,230
11.032620,1775669128.514742,599617949332529882,543
11.040312,1775669128.514742,599617949332529882,-45
11.048005,1775669128.514742,599617949332529882,433
11.055697,1775669128.514742,599617949332529882,251
11.063389,1775669128.514742,599617949332529882,79
11.071082,1775669128.514742,599617949332529882,609
11.078774,1775669128.514742,599617949332529882,-11
11.086466,1775669128.514742,599617949332529882,278
11.094158,1775669128.514742,599617949332529882,358
11.101851,1775669128.514742,599617949332529882,-86
11.109543,1775669128.514742,599617949332529882,541
11.117235,1775669128.514742,599617949332529882,118
11.124928,1775669128.514742,599617949332529882,143
11.132620,1775669128.514742,599617949332529882,509
11.140312,1775669128.514742,599617949332529882,-66
11.148005,1775669128.514742,599617949332529882,399
11.155697,1775669128.514742,599617949332529882,289
11.163389,1775669128.514742,599617949332529882,175
11.171082,1775669128.514742,599617949332529882,595
11.178774,1775669128.514742,599617949332529882,-66
11.186466,1775669128.514742,599617949332529882,346
11.194158,1775669128.514742,599617949332529882,488
11.201851,1775669128.514742,599617949332529882,-41
11.209543,1775669128.514742,599617949332529882,536
11.217235,1775669128.514742,599617949332529882,134
11.224928,1775669128.514742,599617949332529882,139
11.232709,1775669129.052781,599617949894157722,490
11.240402,1775669129.052781,599617949894157722,-59
11.248094,1775669129.052781,599617949894157722,472
11.255786,1775669129.052781,599617949894157722,294
11.263479,1775669129.052781,599617949894157722,36
11.271171,1775669129.052781,599617949894157722,568
11.278863,1775669129.052781,599617949894157722,2
11.286555,1775669129.052781,599617949894157722,317
11.294248,1775669129.052781,599617949894157722,456
11.301940,1775669129.052781,599617949894157722,-4
11.309632,1775669129.052781,599617949894157722,536
11.317325,1775669129.052781,599617949894157722,57
11.325017,1775669129.052781,599617949894157722,139
11.332709,1775669129.052781,599617949894157722,611
11.340402,1775669129.052781,599617949894157722,-27
11.348094,1775669129.052781,599617949894157722,390
11.355786,1775669129.052781,599617949894157722,225
11.363479,1775669129.052781,599617949894157722,11
11.371171,1775669129.052781,599617949894157722,611
11.378863,1775669129.052781,599617949894157722,59
11.386555,1775669129.052781,599617949894157722,346
11.394248,1775669129.052781,599617949894157722,477
11.401940,1775669129.052781,599617949894157722,-20
11.409632,1775669129.052781,599617949894157722,579
11.417325,1775669129.052781,599617949894157722,175
11.425017,1775669129.052781,599617949894157722,164
11.432709,1775669129.052781,599617949894157722,566
11.440402,1775669129.052781,599617949894157722,-13
11.448094,1775669129.052781,599617949894157722,424
11.455786,1775669129.052781,599617949894157722,251
11.463478,1775669129.052781,599617949894157722,63
11.471171,1775669129.052781,599617949894157722,650
11.478863,1775669129.052781,599617949894157722,36
11.486555,1775669129.052781,599617949894157722,308
11.494248,1775669129.052781,599617949894157722,442
11.501940,1775669129.052781,599617949894157722,-59
11.509632,1775669129.052781,599617949894157722,556
11.517325,1775669129.052781,599617949894157722,148
11.525017,1775669129.052781,599617949894157722,150
11.532709,1775669129.052781,599617949894157722,572
11.540402,1775669129.052781,599617949894157722,-57
11.548094,1775669129.052781,599617949894157722,442
11.555786,1775669129.052781,599617949894157722,326
11.563478,1775669129.052781,599617949894157722,-50
11.571171,1775669129.052781,599617949894157722,493
11.578863,1775669129.052781,599617949894157722,-13
11.586555,1775669129.052781,599617949894157722,221
11.594248,1775669129.052781,599617949894157722,351
11.601940,1775669129.052781,599617949894157722,-98
11.609632,1775669129.052781,599617949894157722,570
11.617325,1775669129.052781,599617949894157722,187
11.625017,1775669129.052781,599617949894157722,107
11.632709,1775669129.052781,599617949894157722,515
11.640402,1775669129.052781,599617949894157722,-41
11.648094,1775669129.052781,599617949894157722,440
11.655786,1775669129.052781,599617949894157722,312
11.663478,1775669129.052781,599617949894157722,57
11.671171,1775669129.052781,599617949894157722,675
11.678863,1775669129.052781,599617949894157722,120
11.686555,1775669129.052781,599617949894157722,335
11.694248,1775669129.052781,599617949894157722,451
11.701940,1775669129.052781,599617949894157722,-91
11.709632,1775669129.052781,599617949894157722,531
11.717325,1775669129.052781,599617949894157722,168
11.725017,1775669129.052781,599617949894157722,116
11.732709,1775669129.052781,599617949894157722,561
11.740402,1775669129.052781,599617949894157722,-31
11.748094,1775669129.052781,599617949894157722,424
11.755786,1775669129.052781,599617949894157722,287
11.763479,1775669129.052781,599617949894157722,-54
11.771171,1775669129.052781,599617949894157722,671
11.778863,1775669129.052781,599617949894157722,182
11.786555,1775669129.052781,599617949894157722,207
11.794337,1775669129.593009,599617950455785562,390
11.802029,1775669129.593009,599617950455785562,43
11.809722,1775669129.593009,599617950455785562,586
11.817414,1775669129.593009,599617950455785562,120
11.825107,1775669129.593009,599617950455785562,107
11.832799,1775669129.593009,599617950455785562,554
11.840491,1775669129.593009,599617950455785562,-93
11.848183,1775669129.593009,599617950455785562,394
11.855876,1775669129.593009,599617950455785562,303
11.863568,1775669129.593009,599617950455785562,-27
11.871260,1775669129.593009,599617950455785562,636
11.878953,1775669129.593009,599617950455785562,100
11.886645,1775669129.593009,599617950455785562,292
11.894337,1775669129.593009,599617950455785562,511
11.902030,1775669129.593009,599617950455785562,-36
11.909722,1775669129.593009,599617950455785562,575
11.917414,1775669129.593009,599617950455785562,278
11.925107,1775669129.593009,599617950455785562,171
11.932799,1775669129.593009,599617950455785562,598
11.940491,1775669129.593009,599617950455785562,38
11.948183,1775669129.593009,599617950455785562,499
11.955876,1775669129.593009,599617950455785562,431
11.963568,1775669129.593009,599617950455785562,89
11.971260,1775669129.593009,599617950455785562,641
11.978953,1775669129.593009,599617950455785562,114
11.986645,1775669129.593009,599617950455785562,340
11.994337,1775669129.593009,599617950455785562,547
12.002030,1775669129.593009,599617950455785562,34
12.009722,1775669129.593009,599617950455785562,634
12.017414,1775669129.593009,599617950455785562,283
12.025106,1775669129.593009,599617950455785562,203
12.032799,1775669129.593009,599617950455785562,657
12.040491,1775669129.593009,599617950455785562,47
12.048183,1775669129.593009,599617950455785562,511
12.055876,1775669129.593009,599617950455785562,458
12.063568,1775669129.593009,599617950455785562,82
12.071260,1775669129.593009,599617950455785562,668
12.078953,1775669129.593009,599617950455785562,166
12.086645,1775669129.593009,599617950455785562,346
12.094337,1775669129.593009,599617950455785562,566
12.102030,1775669129.593009,599617950455785562,57
12.109722,1775669129.593009,599617950455785562,611
12.117414,1775669129.593009,599617950455785562,239
12.125106,1775669129.593009,599617950455785562,143
12.132799,1775669129.593009,599617950455785562,648
12.140491,1775669129.593009,599617950455785562,93
12.148183,1775669129.593009,599617950455785562,522
12.155876,1775669129.593009,599617950455785562,445
12.163568,1775669129.593009,599617950455785562,84
12.171260,1775669129.593009,599617950455785562,693
12.178953,1775669129.593009,599617950455785562,178
12.186645,1775669129.593009,599617950455785562,356
12.194337,1775669129.593009,599617950455785562,588
12.202030,1775669129.593009,599617950455785562,11
12.209722,1775669129.593009,599617950455785562,561
12.217414,1775669129.593009,599617950455785562,264
12.225106,1775669129.593009,599617950455785562,184
12.232799,1775669129.593009,599617950455785562,675
12.240491,1775669129.593009,599617950455785562,57
12.248183,1775669129.593009,599617950455785562,449
12.255876,1775669129.593009,599617950455785562,397
12.263568,1775669129.593009,599617950455785562,41
12.271260,1775669129.593009,599617950455785562,707
12.278953,1775669129.593009,599617950455785562,216
12.286645,1775669129.593009,599617950455785562,328
12.294337,1775669129.593009,599617950455785562,538
12.302029,1775669129.593009,599617950455785562,-9
12.309722,1775669129.593009,599617950455785562,648
12.317414,1775669129.593009,599617950455785562,392
12.325107,1775669129.593009,599617950455785562,198
12.332799,1775669129.593009,599617950455785562,643
12.340491,1775669129.593009,599617950455785562,91
12.348183,1775669129.593009,599617950455785562,536
12.355970,1775669130.179855,599617951017418490,504
12.363662,1775669130.179855,599617951017418490,123
12.371355,1775669130.179855,599617951017418490,748
12.379047,1775669130.179855,599617951017418490,262
12.386739,1775669130.179855,599617951017418490,394
12.394432,1775669130.179855,599617951017418490,604
12.402124,1775669130.179855,599617951017418490,89
12.409816,1775669130.179855,599617951017418490,771
12.417509,1775669130.179855,599617951017418490,458
12.425201,1775669130.179855,599617951017418490,246
12.432893,1775669130.179855,599617951017418490,728
12.440585,1775669130.179855,599617951017418490,132
12.448278,1775669130.179855,599617951017418490,588
12.455970,1775669130.179855,599617951017418490,620
12.463662,1775669130.179855,599617951017418490,166
12.471355,1775669130.179855,599617951017418490,737
12.479047,1775669130.179855,599617951017418490,251
12.486739,1775669130.179855,599617951017418490,388
12.494432,1775669130.179855,599617951017418490,716
12.502124,1775669130.179855,599617951017418490,182
12.509816,1775669130.179855,599617951017418490,700
12.517509,1775669130.179855,599617951017418490,413
12.525201,1775669130.179855,599617951017418490,271
12.532893,1775669130.179855,599617951017418490,748
12.540586,1775669130.179855,599617951017418490,168
12.548278,1775669130.179855,599617951017418490,593
12.555970,1775669130.179855,599617951017418490,593
12.563662,1775669130.179855,599617951017418490,166
12.571355,1775669130.179855,599617951017418490,739
12.579047,1775669130.179855,599617951017418490,237
12.586739,1775669130.179855,599617951017418490,433
12.594432,1775669130.179855,599617951017418490,766
12.602124,1775669130.179855,599617951017418490,164
12.609816,1775669130.179855,599617951017418490,723
12.617509,1775669130.179855,599617951017418490,481
12.625201,1775669130.179855,599617951017418490,310
12.632893,1775669130.179855,599617951017418490,810
12.640586,1775669130.179855,599617951017418490,194
12.648278,1775669130.179855,599617951017418490,566
12.655970,1775669130.179855,599617951017418490,611
12.663662,1775669130.179855,599617951017418490,178
12.671355,1775669130.179855,599617951017418490,778
12.679047,1775669130.179855,599617951017418490,362
12.686739,1775669130.179855,599617951017418490,463
12.694432,1775669130.179855,599617951017418490,709
12.702124,1775669130.179855,599617951017418490,75
12.709816,1775669130.179855,599617951017418490,657
12.717509,1775669130.179855,599617951017418490,593
12.725201,1775669130.179855,599617951017418490,367
12.732893,1775669130.179855,599617951017418490,728
12.740585,1775669130.179855,599617951017418490,241
12.748278,1775669130.179855,599617951017418490,618
12.755970,1775669130.179855,599617951017418490,497
12.763662,1775669130.179855,599617951017418490,141
12.771355,1775669130.179855,599617951017418490,887
12.779047,1775669130.179855,599617951017418490,328
12.786739,1775669130.179855,599617951017418490,346
12.794432,1775669130.179855,599617951017418490,703
12.802124,1775669130.179855,599617951017418490,111
12.809816,1775669130.179855,599617951017418490,687
12.817509,1775669130.179855,599617951017418490,515
12.825201,1775669130.179855,599617951017418490,251
12.832893,1775669130.179855,599617951017418490,716
12.840585,1775669130.179855,599617951017418490,189
12.848278,1775669130.179855,599617951017418490,547
12.855970,1775669130.179855,599617951017418490,582
12.863662,1775669130.179855,599617951017418490,182
12.871355,1775669130.179855,599617951017418490,782
12.879047,1775669130.179855,599617951017418490,299
12.886739,1775669130.179855,599617951017418490,372
12.894432,1775669130.179855,599617951017418490,705
12.902124,1775669130.179855,599617951017418490,182
12.909816,1775669130.179855,599617951017418490,746
12.917623,1775669130.852985,599617951579071760,488
12.925316,1775669130.852985,599617951579071760,264
12.933008,1775669130.852985,599617951579071760,796
12.940700,1775669130.852985,599617951579071760,223
12.948393,1775669130.852985,599617951579071760,593
12.956085,1775669130.852985,599617951579071760,675
12.963777,1775669130.852985,599617951579071760,216
12.971470,1775669130.852985,599617951579071760,794
12.979162,1775669130.852985,599617951579071760,287
12.986854,1775669130.852985,599617951579071760,369
12.994546,1775669130.852985,599617951579071760,835
13.002239,1775669130.852985,599617951579071760,239
13.009931,1775669130.852985,599617951579071760,675
13.017623,1775669130.852985,599617951579071760,497
13.025316,1775669130.852985,599617951579071760,296
13.033008,1775669130.852985,599617951579071760,787
13.040700,1775669130.852985,599617951579071760,228
13.048393,1775669130.852985,599617951579071760,595
13.056085,1775669130.852985,599617951579071760,661
13.063777,1775669130.852985,599617951579071760,173
13.071470,1775669130.852985,599617951579071760,741
13.079162,1775669130.852985,599617951579071760,315
13.086854,1775669130.852985,599617951579071760,433
13.094546,1775669130.852985,599617951579071760,787
13.102239,1775669130.852985,599617951579071760,159
13.109931,1775669130.852985,599617951579071760,657
13.117623,1775669130.852985,599617951579071760,447
13.125316,1775669130.852985,599617951579071760,267
13.133008,1775669130.852985,599617951579071760,871
13.140700,1775669130.852985,599617951579071760,253
13.148393,1775669130.852985,599617951579071760,536
13.156085,1775669130.852985,599617951579071760,641
13.163777,1775669130.852985,599617951579071760,164
13.171470,1775669130.852985,599617951579071760,769
13.179162,1775669130.852985,599617951579071760,360
13.186854,1775669130.852985,599617951579071760,413
13.194546,1775669130.852985,599617951579071760,782
13.202239,1775669130.852985,599617951579071760,198
13.209931,1775669130.852985,599617951579071760,716
13.217623,1775669130.852985,599617951579071760,527
13.225316,1775669130.852985,599617951579071760,285
13.233008,1775669130.852985,599617951579071760,860
13.240700,1775669130.852985,599617951579071760,289
13.248393,1775669130.852985,599617951579071760,570
13.256085,1775669130.852985,599617951579071760,682
13.263777,1775669130.852985,599617951579071760,239
13.271469,1775669130.852985,599617951579071760,844
13.279162,1775669130.852985,599617951579071760,417
13.286854,1775669130.852985,599617951579071760,426
13.294546,1775669130.852985,599617951579071760,757
13.302239,1775669130.852985,599617951579071760,155
13.309931,1775669130.852985,599617951579071760,687
13.317623,1775669130.852985,599617951579071760,511
13.325316,1775669130.852985,599617951579071760,278
13.333008,1775669130.852985,599617951579071760,865
13.340700,1775669130.852985,599617951579071760,264
13.348393,1775669130.852985,599617951579071760,545
13.356085,1775669130.852985,599617951579071760,687
13.363777,1775669130.852985,599617951579071760,198
13.371469,1775669130.852985,599617951579071760,810
13.379162,1775669130.852985,599617951579071760,415
13.386854,1775669130.852985,599617951579071760,415
13.394546,1775669130.852985,599617951579071760,810
13.402239,1775669130.852985,599617951579071760,237
13.409931,1775669130.852985,599617951579071760,735
13.417623,1775669130.852985,599617951579071760,588
13.425316,1775669130.852985,599617951579071760,315
13.433008,1775669130.852985,599617951579071760,856
13.440700,1775669130.852985,599617951579071760,317
13.448393,1775669130.852985,599617951579071760,602
13.456085,1775669130.852985,599617951579071760,719
13.463777,1775669130.852985,599617951579071760,248
13.471470,1775669130.852985,599617951579071760,819
13.479221,1775669131.302850,599617952140669084,381
13.486913,1775669131.302850,599617952140669084,456
13.494605,1775669131.302850,599617952140669084,887
13.502298,1775669131.302850,599617952140669084,248
13.509990,1775669131.302850,599617952140669084,753
13.517682,1775669131.302850,599617952140669084,632
13.525375,1775669131.302850,599617952140669084,342
13.533067,1775669131.302850,599617952140669084,926
13.540759,1775669131.302850,599617952140669084,378
13.548452,1775669131.302850,599617952140669084,632
13.556144,1775669131.302850,599617952140669084,796
13.563836,1775669131.302850,599617952140669084,292
13.571528,1775669131.302850,599617952140669084,874
13.579221,1775669131.302850,599617952140669084,513
13.586913,1775669131.302850,599617952140669084,486
13.594605,1775669131.302850,599617952140669084,878
13.602298,1775669131.302850,599617952140669084,310
13.609990,1775669131.302850,599617952140669084,778
13.617682,1775669131.302850,599617952140669084,641
13.625375,1775669131.302850,599617952140669084,378
13.633067,1775669131.302850,599617952140669084,947
13.640759,1775669131.302850,599617952140669084,383
13.648451,1775669131.302850,599617952140669084,602
13.656144,1775669131.302850,599617952140669084,687
13.663836,1775669131.302850,599617952140669084,230
13.671528,1775669131.302850,599617952140669084,924
13.679221,1775669131.302850,599617952140669084,488
13.686913,1775669131.302850,599617952140669084,401
13.694605,1775669131.302850,599617952140669084,867
13.702298,1775669131.302850,599617952140669084,280
13.709990,1775669131.302850,599617952140669084,728
13.717682,1775669131.302850,599617952140669084,591
13.725375,1775669131.302850,599617952140669084,230
13.733067,1775669131.302850,599617952140669084,929
13.740759,1775669131.302850,599617952140669084,470
13.748451,1775669131.302850,599617952140669084,538
13.756144,1775669131.302850,599617952140669084,764
13.763836,1775669131.302850,599617952140669084,392
13.771528,1775669131.302850,599617952140669084,860
13.779221,1775669131.302850,599617952140669084,449
13.786913,1775669131.302850,599617952140669084,477
13.794605,1775669131.302850,599617952140669084,885
13.802298,1775669131.302850,599617952140669084,264
13.809990,1775669131.302850,599617952140669084,705
13.817682,1775669131.302850,599617952140669084,584
13.825375,1775669131.302850,599617952140669084,333
13.833067,1775669131.302850,599617952140669084,890
13.840759,1775669131.302850,599617952140669084,280
13.848451,1775669131.302850,599617952140669084,604
13.856144,1775669131.302850,599617952140669084,842
13.863836,1775669131.302850,599617952140669084,235
13.871528,1775669131.302850,599617952140669084,810
13.879221,1775669131.302850,599617952140669084,490
13.886913,1775669131.302850,599617952140669084,410
13.894605,1775669131.302850,599617952140669084,837
13.902298,1775669131.302850,599617952140669084,235
13.909990,1775669131.302850,599617952140669084,657
13.917682,1775669131.302850,599617952140669084,609
13.925375,1775669131.302850,599617952140669084,324
13.933067,1775669131.302850,599617952140669084,876
13.940759,1775669131.302850,599617952140669084,326
13.948452,1775669131.302850,599617952140669084,541
13.956144,1775669131.302850,599617952140669084,730
13.963836,1775669131.302850,599617952140669084,198
13.971528,1775669131.302850,599617952140669084,789
13.979221,1775669131.302850,599617952140669084,451
13.986913,1775669131.302850,599617952140669084,372
13.994605,1775669131.302850,599617952140669084,821
14.002298,1775669131.302850,599617952140669084,214
14.009990,1775669131.302850,599617952140669084,598
14.017682,1775669131.302850,599617952140669084,502
14.025375,1775669131.302850,599617952140669084,237
14.033067,1775669131.302850,599617952140669084,862
14.040869,1775669131.888444,599617952702317270,278
14.048561,1775669131.888444,599617952702317270,438
14.056254,1775669131.888444,599617952702317270,636
14.063946,1775669131.888444,599617952702317270,123
14.071638,1775669131.888444,599617952702317270,778
14.079330,1775669131.888444,599617952702317270,422
14.087023,1775669131.888444,599617952702317270,273
14.094715,1775669131.888444,599617952702317270,753
14.102407,1775669131.888444,599617952702317270,152
14.110100,1775669131.888444,599617952702317270,586
14.117792,1775669131.888444,599617952702317270,568
14.125484,1775669131.888444,599617952702317270,189
14.133177,1775669131.888444,599617952702317270,746
14.140869,1775669131.888444,599617952702317270,239
14.148561,1775669131.888444,599617952702317270,422
14.156254,1775669131.888444,599617952702317270,650
14.163946,1775669131.888444,599617952702317270,130
14.171638,1775669131.888444,599617952702317270,714
14.179330,1775669131.888444,599617952702317270,385
14.187023,1775669131.888444,599617952702317270,257
14.194715,1775669131.888444,599617952702317270,673
14.202407,1775669131.888444,599617952702317270,105
14.210100,1775669131.888444,599617952702317270,630
14.217792,1775669131.888444,599617952702317270,570
14.225484,1775669131.888444,599617952702317270,143
14.233177,1775669131.888444,599617952702317270,735
14.240869,1775669131.888444,599617952702317270,223
14.248561,1775669131.888444,599617952702317270,410
14.256254,1775669131.888444,599617952702317270,675
14.263946,1775669131.888444,599617952702317270,109
14.271638,1775669131.888444,599617952702317270,666
14.279330,1775669131.888444,599617952702317270,362
14.287023,1775669131.888444,599617952702317270,246
14.294715,1775669131.888444,599617952702317270,732
14.302407,1775669131.888444,599617952702317270,127
14.310100,1775669131.888444,599617952702317270,538
14.317792,1775669131.888444,599617952702317270,497
14.325484,1775669131.888444,599617952702317270,79
14.333177,1775669131.888444,599617952702317270,721
14.340869,1775669131.888444,599617952702317270,267
14.348561,1775669131.888444,599617952702317270,390
14.356254,1775669131.888444,599617952702317270,630
14.363946,1775669131.888444,599617952702317270,84
14.371638,1775669131.888444,599617952702317270,588
14.379331,1775669131.888444,599617952702317270,264
14.387023,1775669131.888444,599617952702317270,244
14.394715,1775669131.888444,599617952702317270,757
14.402407,1775669131.888444,599617952702317270,89
14.410100,1775669131.888444,599617952702317270,495
14.417792,1775669131.888444,599617952702317270,486
14.425484,1775669131.888444,599617952702317270,86
14.433177,1775669131.888444,599617952702317270,746
14.440869,1775669131.888444,599617952702317270,280
14.448561,1775669131.888444,599617952702317270,376
14.456254,1775669131.888444,599617952702317270,611
14.463946,1775669131.888444,599617952702317270,43
14.471638,1775669131.888444,599617952702317270,616
14.479331,1775669131.888444,599617952702317270,362
14.487023,1775669131.888444,599617952702317270,210
14.494715,1775669131.888444,599617952702317270,687
14.502407,1775669131.888444,599617952702317270,93
14.510100,1775669131.888444,599617952702317270,465
14.517792,1775669131.888444,599617952702317270,463
14.525484,1775669131.888444,599617952702317270,43
14.533177,1775669131.888444,599617952702317270,636
14.540869,1775669131.888444,599617952702317270,273
14.548561,1775669131.888444,599617952702317270,358
14.556254,1775669131.888444,599617952702317270,447
14.563946,1775669131.888444,599617952702317270,29
14.571638,1775669131.888444,599617952702317270,769
14.579330,1775669131.888444,599617952702317270,369
14.587023,1775669131.888444,599617952702317270,136
14.594715,1775669131.888444,599617952702317270,709
14.602522,1775669132.427877,599617953263970542,102
14.610214,1775669132.427877,599617953263970542,470
14.617907,1775669132.427877,599617953263970542,534
14.625599,1775669132.427877,599617953263970542,111
14.633291,1775669132.427877,599617953263970542,691
14.640984,1775669132.427877,599617953263970542,225
14.648676,1775669132.427877,599617953263970542,328
14.656368,1775669132.427877,599617953263970542,632
14.664061,1775669132.427877,599617953263970542,82
14.671753,1775669132.427877,599617953263970542,607
14.679445,1775669132.427877,599617953263970542,330
14.687138,1775669132.427877,599617953263970542,116
14.694830,1775669132.427877,599617953263970542,584
14.702522,1775669132.427877,599617953263970542,79
14.710214,1775669132.427877,599617953263970542,518
14.717907,1775669132.427877,599617953263970542,488
14.725599,1775669132.427877,599617953263970542,63
14.733292,1775669132.427877,599617953263970542,682
14.740984,1775669132.427877,599617953263970542,162
14.748676,1775669132.427877,599617953263970542,301
14.756368,1775669132.427877,599617953263970542,666
14.764061,1775669132.427877,599617953263970542,45
14.771753,1775669132.427877,599617953263970542,572
14.779445,1775669132.427877,599617953263970542,342
14.787138,1775669132.427877,599617953263970542,130
14.794830,1775669132.427877,599617953263970542,634
14.802522,1775669132.427877,599617953263970542,61
14.810215,1775669132.427877,599617953263970542,461
14.817907,1775669132.427877,599617953263970542,497
14.825599,1775669132.427877,599617953263970542,11
14.833291,1775669132.427877,599617953263970542,611
14.840984,1775669132.427877,599617953263970542,207
14.848676,1775669132.427877,599617953263970542,319
14.856368,1775669132.427877,599617953263970542,607
14.864061,1775669132.427877,599617953263970542,9
14.871753,1775669132.427877,599617953263970542,566
14.879445,1775669132.427877,599617953263970542,337
14.887138,1775669132.427877,599617953263970542,134
14.894830,1775669132.427877,599617953263970542,677
14.902522,1775669132.427877,599617953263970542,89
14.910215,1775669132.427877,599617953263970542,390
14.917907,1775669132.427877,599617953263970542,413
14.925599,1775669132.427877,599617953263970542,25
14.933291,1775669132.427877,599617953263970542,691
14.940984,1775669132.427877,599617953263970542,205
14.948676,1775669132.427877,599617953263970542,253
14.956368,1775669132.427877,599617953263970542,598
14.964061,1775669132.427877,599617953263970542,6
14.971753,1775669132.427877,599617953263970542,543
14.979445,1775669132.427877,599617953263970542,342
14.987138,1775669132.427877,599617953263970542,118
14.994830,1775669132.427877,599617953263970542,646
15.002522,1775669132.427877,599617953263970542,57
15.010215,1775669132.427877,599617953263970542,376
15.017907,1775669132.427877,599617953263970542,451
15.025599,1775669132.427877,599617953263970542,6
15.033291,1775669132.427877,599617953263970542,598
15.040984,1775669132.427877,599617953263970542,116
15.048676,1775669132.427877,599617953263970542,203
15.056368,1775669132.427877,599617953263970542,641
15.064061,1775669132.427877,599617953263970542,68
15.071753,1775669132.427877,599617953263970542,522
15.079445,1775669132.427877,599617953263970542,301
15.087138,1775669132.427877,599617953263970542,84
15.094830,1775669132.427877,599617953263970542,598
15.102522,1775669132.427877,599617953263970542,18
15.110214,1775669132.427877,599617953263970542,369
15.117907,1775669132.427877,599617953263970542,456
15.125599,1775669132.427877,599617953263970542,-13
15.133291,1775669132.427877,599617953263970542,568
15.140984,1775669132.427877,599617953263970542,43
15.148676,1775669132.427877,599617953263970542,132
15.156368,1775669132.427877,599617953263970542,643
15.164165,1775669133.014378,599617953825613640,-36
15.171858,1775669133.014378,599617953825613640,420
15.179550,1775669133.014378,599617953825613640,344
15.187242,1775669133.014378,599617953825613640,77
15.194935,1775669133.014378,599617953825613640,556
15.202627,1775669133.014378,599617953825613640,6
15.210319,1775669133.014378,599617953825613640,321
15.218011,1775669133.014378,599617953825613640,415
15.225704,1775669133.014378,599617953825613640,-70
15.233396,1775669133.014378,599617953825613640,497
15.241088,1775669133.014378,599617953825613640,127
15.248781,1775669133.014378,599617953825613640,214
15.256473,1775669133.014378,599617953825613640,536
15.264165,1775669133.014378,599617953825613640,-61
15.271858,1775669133.014378,599617953825613640,442
15.279550,1775669133.014378,599617953825613640,230
15.287242,1775669133.014378,599617953825613640,38
15.294935,1775669133.014378,599617953825613640,627
15.302627,1775669133.014378,599617953825613640,25
15.310319,1775669133.014378,599617953825613640,324
15.318012,1775669133.014378,599617953825613640,426
15.325704,1775669133.014378,599617953825613640,-75
15.333396,1775669133.014378,599617953825613640,513
15.341088,1775669133.014378,599617953825613640,84
15.348781,1775669133.014378,599617953825613640,180
15.356473,1775669133.014378,599617953825613640,632
15.364165,1775669133.014378,599617953825613640,-2
15.371858,1775669133.014378,599617953825613640,479
15.379550,1775669133.014378,599617953825613640,353
15.387242,1775669133.014378,599617953825613640,66
15.394935,1775669133.014378,599617953825613640,579
15.402627,1775669133.014378,599617953825613640,45
15.410319,1775669133.014378,599617953825613640,315
15.418012,1775669133.014378,599617953825613640,401
15.425704,1775669133.014378,599617953825613640,-41
15.433396,1775669133.014378,599617953825613640,559
15.441088,1775669133.014378,599617953825613640,123
15.448781,1775669133.014378,599617953825613640,141
15.456473,1775669133.014378,599617953825613640,525
15.464165,1775669133.014378,599617953825613640,-77
15.471858,1775669133.014378,599617953825613640,433
15.479550,1775669133.014378,599617953825613640,283
15.487242,1775669133.014378,599617953825613640,2
15.494935,1775669133.014378,599617953825613640,575
15.502627,1775669133.014378,599617953825613640,18
15.510319,1775669133.014378,599617953825613640,294
15.518011,1775669133.014378,599617953825613640,461
15.525704,1775669133.014378,599617953825613640,-52
15.533396,1775669133.014378,599617953825613640,490
15.541088,1775669133.014378,599617953825613640,105
15.548781,1775669133.014378,599617953825613640,127
15.556473,1775669133.014378,599617953825613640,531
15.564165,1775669133.014378,599617953825613640,-98
15.571858,1775669133.014378,599617953825613640,134
15.579550,1775669133.014378,599617953825613640,-408
15.587242,1775669133.014378,599617953825613640,-858
15.594935,1775669133.014378,599617953825613640,-219
15.602627,1775669133.014378,599617953825613640,-728
15.610319,1775669133.014378,599617953825613640,-515
15.618011,1775669133.014378,599617953825613640,-410
15.625704,1775669133.014378,599617953825613640,-887
15.633396,1775669133.014378,599617953825613640,-294
15.641088,1775669133.014378,599617953825613640,-705
15.648781,1775669133.014378,599617953825613640,-691
15.656473,1775669133.014378,599617953825613640,-271
15.664165,1775669133.014378,599617953825613640,-956
15.671858,1775669133.014378,599617953825613640,-401
15.679550,1775669133.014378,599617953825613640,-394
15.687242,1775669133.014378,599617953825613640,-840
15.694935,1775669133.014378,599617953825613640,-287
15.702627,1775669133.014378,599617953825613640,-700
15.710319,1775669133.014378,599617953825613640,-531
15.718011,1775669133.014378,599617953825613640,-413
15.725798,1775669133.552733,599617954387246568,-837
15.733490,1775669133.552733,599617954387246568,-237
15.741183,1775669133.552733,599617954387246568,-627
15.748875,1775669133.552733,599617954387246568,-659
15.756567,1775669133.552733,599617954387246568,-244
15.764260,1775669133.552733,599617954387246568,-837
15.771952,1775669133.552733,599617954387246568,-365
15.779644,1775669133.552733,599617954387246568,-495
15.787337,1775669133.552733,599617954387246568,-796
15.795029,1775669133.552733,599617954387246568,-155
15.802721,1775669133.552733,599617954387246568,-691
15.810414,1775669133.552733,599617954387246568,-556
15.818106,1775669133.552733,599617954387246568,-440
15.825798,1775669133.552733,599617954387246568,-840
15.833490,1775669133.552733,599617954387246568,-148
15.841183,1775669133.552733,599617954387246568,-627
15.848875,1775669133.552733,599617954387246568,-693
15.856568,1775669133.552733,599617954387246568,-100
15.864260,1775669133.552733,599617954387246568,-709
15.871952,1775669133.552733,599617954387246568,-317
15.879644,1775669133.552733,599617954387246568,-349
15.887337,1775669133.552733,599617954387246568,-668
15.895029,1775669133.552733,599617954387246568,-143
15.902721,1775669133.552733,599617954387246568,-664
15.910414,1775669133.552733,599617954387246568,-420
15.918106,1775669133.552733,599617954387246568,-246
15.925798,1775669133.552733,599617954387246568,-787
15.933491,1775669133.552733,599617954387246568,-194
15.941183,1775669133.552733,599617954387246568,-547
15.948875,1775669133.552733,599617954387246568,-652
15.956567,1775669133.552733,599617954387246568,-196
15.964260,1775669133.552733,599617954387246568,-700
15.971952,1775669133.552733,599617954387246568,-232
15.979644,1775669133.552733,599617954387246568,-342
15.987337,1775669133.552733,599617954387246568,-680
15.995029,1775669133.552733,599617954387246568,-107
16.002721,1775669133.552733,599617954387246568,-625
16.010414,1775669133.552733,599617954387246568,-390
16.018106,1775669133.552733,599617954387246568,-184
16.025798,1775669133.552733,599617954387246568,-730
16.033491,1775669133.552733,599617954387246568,-159
16.041183,1775669133.552733,599617954387246568,-472
16.048875,1775669133.552733,599617954387246568,-513
16.056567,1775669133.552733,599617954387246568,-54
16.064260,1775669133.552733,599617954387246568,-655
16.071952,1775669133.552733,599617954387246568,-225
16.079644,1775669133.552733,599617954387246568,-308
16.087337,1775669133.552733,599617954387246568,-657
16.095029,1775669133.552733,599617954387246568,-50
16.102721,1775669133.552733,599617954387246568,-566
16.110414,1775669133.552733,599617954387246568,-369
16.118106,1775669133.552733,599617954387246568,-125
16.125798,1775669133.552733,599617954387246568,-677
16.133491,1775669133.552733,599617954387246568,-132
16.141183,1775669133.552733,599617954387246568,-385
16.148875,1775669133.552733,599617954387246568,-429
16.156567,1775669133.552733,599617954387246568,6
16.164260,1775669133.552733,599617954387246568,-584
16.171952,1775669133.552733,599617954387246568,-205
16.179644,1775669133.552733,599617954387246568,-287
16.187337,1775669133.552733,599617954387246568,-572
16.195029,1775669133.552733,599617954387246568,31
16.202721,1775669133.552733,599617954387246568,-511
16.210414,1775669133.552733,599617954387246568,-330
16.218106,1775669133.552733,599617954387246568,-116
16.225798,1775669133.552733,599617954387246568,-643
16.233490,1775669133.552733,599617954387246568,-20
16.241183,1775669133.552733,599617954387246568,-394
16.248875,1775669133.552733,599617954387246568,-525
16.256567,1775669133.552733,599617954387246568,139
16.264260,1775669133.552733,599617954387246568,-472
16.271952,1775669133.552733,599617954387246568,-276
16.279644,1775669133.552733,599617954387246568,-214
16.287452,1775669134.092714,599617954948899838,-435
16.295144,1775669134.092714,599617954948899838,59
16.302836,1775669134.092714,599617954948899838,-488
16.310528,1775669134.092714,599617954948899838,-310
16.318221,1775669134.092714,599617954948899838,-61
16.325913,1775669134.092714,599617954948899838,-531
16.333605,1775669134.092714,599617954948899838,43
16.341298,1775669134.092714,599617954948899838,-328
16.348990,1775669134.092714,599617954948899838,-481
16.356682,1775669134.092714,599617954948899838,11
16.364375,1775669134.092714,599617954948899838,-511
16.372067,1775669134.092714,599617954948899838,-27
16.379759,1775669134.092714,599617954948899838,-84
16.387452,1775669134.092714,599617954948899838,-504
16.395144,1775669134.092714,599617954948899838,95
16.402836,1775669134.092714,599617954948899838,-413
16.410528,1775669134.092714,599617954948899838,-253
16.418221,1775669134.092714,599617954948899838,27
16.425913,1775669134.092714,599617954948899838,-534
16.433605,1775669134.092714,599617954948899838,34
16.441298,1775669134.092714,599617954948899838,-228
16.448990,1775669134.092714,599617954948899838,-388
16.456682,1775669134.092714,599617954948899838,93
16.464375,1775669134.092714,599617954948899838,-445
16.472067,1775669134.092714,599617954948899838,-47
16.479759,1775669134.092714,599617954948899838,-79
16.487451,1775669134.092714,599617954948899838,-486
16.495144,1775669134.092714,599617954948899838,75
16.502836,1775669134.092714,599617954948899838,-360
16.510528,1775669134.092714,599617954948899838,-173
16.518221,1775669134.092714,599617954948899838,27
16.525913,1775669134.092714,599617954948899838,-534
16.533605,1775669134.092714,599617954948899838,93
16.541298,1775669134.092714,599617954948899838,-205
16.548990,1775669134.092714,599617954948899838,-360
16.556682,1775669134.092714,599617954948899838,187
16.564375,1775669134.092714,599617954948899838,-397
16.572067,1775669134.092714,599617954948899838,-45
16.579759,1775669134.092714,599617954948899838,-45
16.587451,1775669134.092714,599617954948899838,-429
16.595144,1775669134.092714,599617954948899838,171
16.602836,1775669134.092714,599617954948899838,-310
16.610528,1775669134.092714,599617954948899838,-184
16.618221,1775669134.092714,599617954948899838,100
16.625913,1775669134.092714,599617954948899838,-458
16.633605,1775669134.092714,599617954948899838,77
16.641298,1775669134.092714,599617954948899838,-175
16.648990,1775669134.092714,599617954948899838,-305
16.656682,1775669134.092714,599617954948899838,189
16.664375,1775669134.092714,599617954948899838,-399
16.672067,1775669134.092714,599617954948899838,-27
16.679759,1775669134.092714,599617954948899838,-13
16.687451,1775669134.092714,599617954948899838,-399
16.695144,1775669134.092714,599617954948899838,214
16.702836,1775669134.092714,599617954948899838,-257
16.710528,1775669134.092714,599617954948899838,-187
16.718221,1775669134.092714,599617954948899838,75
16.725913,1775669134.092714,599617954948899838,-420
16.733605,1775669134.092714,599617954948899838,175
16.741298,1775669134.092714,599617954948899838,-109
16.748990,1775669134.092714,599617954948899838,-299
16.756682,1775669134.092714,599617954948899838,212
16.764374,1775669134.092714,599617954948899838,-390
16.772067,1775669134.092714,599617954948899838,-27
16.779759,1775669134.092714,599617954948899838,59
16.787452,1775669134.092714,599617954948899838,-324
16.795144,1775669134.092714,599617954948899838,241
16.802836,1775669134.092714,599617954948899838,-262
16.810528,1775669134.092714,599617954948899838,-162
16.818221,1775669134.092714,599617954948899838,200
16.825913,1775669134.092714,599617954948899838,-351
16.833605,1775669134.092714,599617954948899838,164
16.841298,1775669134.092714,599617954948899838,-54
16.849079,1775669134.721736,599617955510527680,-248
16.856772,1775669134.721736,599617955510527680,219
16.864464,1775669134.721736,599617955510527680,-305
16.872156,1775669134.721736,599617955510527680,125
16.879849,1775669134.721736,599617955510527680,109
16.887541,1775669134.721736,599617955510527680,-385
16.895233,1775669134.721736,599617955510527680,196
16.902925,1775669134.721736,599617955510527680,-237
16.910618,1775669134.721736,599617955510527680,-84
16.918310,1775669134.721736,599617955510527680,237
16.926002,1775669134.721736,599617955510527680,-358
16.933695,1775669134.721736,599617955510527680,180
16.941387,1775669134.721736,599617955510527680,-82
16.949079,1775669134.721736,599617955510527680,-367
16.956772,1775669134.721736,599617955510527680,276
16.964464,1775669134.721736,599617955510527680,-84
16.972156,1775669134.721736,599617955510527680,89
16.979849,1775669134.721736,599617955510527680,-4
16.987541,1775669134.721736,599617955510527680,-278
16.995233,1775669134.721736,599617955510527680,349
17.002926,1775669134.721736,599617955510527680,-184
17.010618,1775669134.721736,599617955510527680,-98
17.018310,1775669134.721736,599617955510527680,273
17.026002,1775669134.721736,599617955510527680,-303
17.033695,1775669134.721736,599617955510527680,205
17.041387,1775669134.721736,599617955510527680,31
17.049079,1775669134.721736,599617955510527680,-143
17.056772,1775669134.721736,599617955510527680,349
17.064464,1775669134.721736,599617955510527680,-219
17.072156,1775669134.721736,599617955510527680,127
17.079849,1775669134.721736,599617955510527680,189
17.087541,1775669134.721736,599617955510527680,-221
17.095233,1775669134.721736,599617955510527680,378
17.102926,1775669134.721736,599617955510527680,-70
17.110618,1775669134.721736,599617955510527680,25
17.118310,1775669134.721736,599617955510527680,358
17.126002,1775669134.721736,599617955510527680,-241
17.133695,1775669134.721736,599617955510527680,312
17.141387,1775669134.721736,599617955510527680,150
17.149079,1775669134.721736,599617955510527680,-61
17.156772,1775669134.721736,599617955510527680,449
17.164464,1775669134.721736,599617955510527680,-152
17.172156,1775669134.721736,599617955510527680,200
17.179849,1775669134.721736,599617955510527680,340
17.187541,1775669134.721736,599617955510527680,-143
17.195233,1775669134.721736,599617955510527680,422
17.202925,1775669134.721736,599617955510527680,20
17.210618,1775669134.721736,599617955510527680,57
17.218310,1775669134.721736,599617955510527680,392
17.226002,1775669134.721736,599617955510527680,-150
17.233695,1775669134.721736,599617955510527680,362
17.241387,1775669134.721736,599617955510527680,152
17.249079,1775669134.721736,599617955510527680,-68
17.256772,1775669134.721736,599617955510527680,433
17.264464,1775669134.721736,599617955510527680,-141
17.272156,1775669134.721736,599617955510527680,239
17.279849,1775669134.721736,599617955510527680,330
17.287541,1775669134.721736,599617955510527680,-162
17.295233,1775669134.721736,599617955510527680,454
17.302925,1775669134.721736,599617955510527680,34
17.310618,1775669134.721736,599617955510527680,77
17.318310,1775669134.721736,599617955510527680,465
17.326002,1775669134.721736,599617955510527680,-123
17.333695,1775669134.721736,599617955510527680,374
17.341387,1775669134.721736,599617955510527680,187
17.349079,1775669134.721736,599617955510527680,-73
17.356772,1775669134.721736,599617955510527680,463
17.364464,1775669134.721736,599617955510527680,-84
17.372156,1775669134.721736,599617955510527680,285
17.379849,1775669134.721736,599617955510527680,399
17.387541,1775669134.721736,599617955510527680,-118
17.395233,1775669134.721736,599617955510527680,483
17.402925,1775669134.721736,599617955510527680,86
17.410738,1775669135.218139,599617956072186038,91
17.418430,1775669135.218139,599617956072186038,435
17.426122,1775669135.218139,599617956072186038,-139
17.433815,1775669135.218139,599617956072186038,367
17.441507,1775669135.218139,599617956072186038,182
17.449199,1775669135.218139,599617956072186038,-47
17.456891,1775669135.218139,599617956072186038,525
17.464584,1775669135.218139,599617956072186038,-79
17.472276,1775669135.218139,599617956072186038,196
17.479968,1775669135.218139,599617956072186038,299
17.487661,1775669135.218139,599617956072186038,-168
17.495353,1775669135.218139,599617956072186038,518
17.503045,1775669135.218139,599617956072186038,79
17.510738,1775669135.218139,599617956072186038,36
17.518430,1775669135.218139,599617956072186038,481
17.526122,1775669135.218139,599617956072186038,-139
17.533815,1775669135.218139,599617956072186038,351
17.541507,1775669135.218139,599617956072186038,287
17.549199,1775669135.218139,599617956072186038,-15
17.556891,1775669135.218139,599617956072186038,467
17.564584,1775669135.218139,599617956072186038,-63
17.572276,1775669135.218139,599617956072186038,257
17.579968,1775669135.218139,599617956072186038,388
17.587661,1775669135.218139,599617956072186038,-109
17.595353,1775669135.218139,599617956072186038,488
17.603045,1775669135.218139,599617956072186038,93
17.610738,1775669135.218139,599617956072186038,111
17.618430,1775669135.218139,599617956072186038,515
17.626122,1775669135.218139,599617956072186038,-77
17.633815,1775669135.218139,599617956072186038,433
17.641507,1775669135.218139,599617956072186038,303
17.649199,1775669135.218139,599617956072186038,13
17.656891,1775669135.218139,599617956072186038,566
17.664584,1775669135.218139,599617956072186038,15
17.672276,1775669135.218139,599617956072186038,310
17.679968,1775669135.218139,599617956072186038,454
17.687661,1775669135.218139,599617956072186038,-70
17.695353,1775669135.218139,599617956072186038,518
17.703045,1775669135.218139,599617956072186038,136
17.710738,1775669135.218139,599617956072186038,134
17.718430,1775669135.218139,599617956072186038,559
17.726122,1775669135.218139,599617956072186038,-41
17.733814,1775669135.218139,599617956072186038,424
17.741507,1775669135.218139,599617956072186038,289
17.749199,1775669135.218139,599617956072186038,-13
17.756891,1775669135.218139,599617956072186038,566
17.764584,1775669135.218139,599617956072186038,45
17.772276,1775669135.218139,599617956072186038,315
17.779968,1775669135.218139,599617956072186038,461
17.787661,1775669135.218139,599617956072186038,-73
17.795353,1775669135.218139,599617956072186038,483
17.803045,1775669135.218139,599617956072186038,134
17.810738,1775669135.218139,599617956072186038,196
17.818430,1775669135.218139,599617956072186038,609
17.826122,1775669135.218139,599617956072186038,-38
17.833815,1775669135.218139,599617956072186038,440
17.841507,1775669135.218139,599617956072186038,335
17.849199,1775669135.218139,599617956072186038,57
17.856891,1775669135.218139,599617956072186038,616
17.864584,1775669135.218139,599617956072186038,11
17.872276,1775669135.218139,599617956072186038,305
