time,t_wall,t_device_ns,x,y,z
0.000000,1775669117.285324,599617938147489598,-247,-371,-944
0.005000,1775669117.285324,599617938147489598,-249,-373,-946
0.010000,1775669117.285324,599617938147489598,-251,-372,-946
0.015000,1775669117.285324,599617938147489598,-253,-371,-943
0.020000,1775669117.285324,599617938147489598,-250,-373,-946
0.025000,1775669117.285324,599617938147489598,-252,-374,-940
0.030000,1775669117.285324,599617938147489598,-252,-372,-945
0.035000,1775669117.285324,599617938147489598,-247,-373,-941
0.040000,1775669117.285324,599617938147489598,-249,-375,-944
0.045000,1775669117.285324,599617938147489598,-250,-377,-944
0.050000,1775669117.285324,599617938147489598,-250,-380,-943
0.055000,1775669117.285324,599617938147489598,-252,-380,-943
0.060000,1775669117.285324,599617938147489598,-251,-375,-944
0.065000,1775669117.285324,599617938147489598,-246,-373,-946
0.070000,1775669117.285324,599617938147489598,-243,-374,-946
0.075000,1775669117.285324,599617938147489598,-243,-376,-945
0.080000,1775669117.285324,599617938147489598,-246,-371,-945
0.085000,1775669117.285324,599617938147489598,-250,-374,-942
0.090000,1775669117.285324,599617938147489598,-248,-375,-939
0.095000,1775669117.285324,599617938147489598,-247,-371,-941
0.100000,1775669117.285324,599617938147489598,-250,-375,-943
0.105000,1775669117.285324,599617938147489598,-250,-375,-943
0.110000,1775669117.285324,599617938147489598,-248,-376,-944
0.115000,1775669117.285324,599617938147489598,-250,-378,-945
0.120000,1775669117.285324,599617938147489598,-254,-377,-945
0.125000,1775669117.285324,599617938147489598,-251,-380,-946
0.130000,1775669117.285324,599617938147489598,-249,-380,-946
0.135000,1775669117.285324,599617938147489598,-252,-376,-944
0.140000,1775669117.285324,599617938147489598,-249,-373,-944
0.145000,1775669117.285324,599617938147489598,-247,-373,-945
0.150000,1775669117.285324,599617938147489598,-250,-374,-942
0.155000,1775669117.285324,599617938147489598,-250,-373,-945
0.160000,1775669117.285324,599617938147489598,-247,-373,-943
0.165000,1775669117.285324,599617938147489598,-248,-371,-944
0.170000,1775669117.285324,599617938147489598,-248,-372,-942
0.175000,1775669117.285324,599617938147489598,-249,-372,-942
0.176089,1775669117.443266,599617938323578454,-244,-375,-938
0.181089,1775669117.443266,599617938323578454,-246,-378,-945
0.186089,1775669117.443266,599617938323578454,-247,-379,-944
0.191089,1775669117.443266,599617938323578454,-250,-380,-944
0.196089,1775669117.443266,599617938323578454,-246,-379,-946
0.201089,1775669117.443266,599617938323578454,-246,-378,-945
0.206089,1775669117.443266,599617938323578454,-248,-377,-942
0.211089,1775669117.443266,599617938323578454,-252,-378,-945
0.216089,1775669117.443266,599617938323578454,-250,-375,-946
0.221089,1775669117.443266,599617938323578454,-250,-375,-945
0.226089,1775669117.443266,599617938323578454,-252,-375,-945
0.231089,1775669117.443266,599617938323578454,-252,-375,-945
0.236089,1775669117.443266,599617938323578454,-248,-375,-945
0.241089,1775669117.443266,599617938323578454,-250,-376,-943
0.246089,1775669117.443266,599617938323578454,-248,-375,-944
0.251089,1775669117.443266,599617938323578454,-247,-374,-943
0.256089,1775669117.443266,599617938323578454,-246,-373,-944
0.261089,1775669117.443266,599617938323578454,-247,-371,-945
0.266089,1775669117.443266,599617938323578454,-248,-373,-944
0.271089,1775669117.443266,599617938323578454,-247,-373,-942
0.276089,1775669117.443266,599617938323578454,-249,-373,-942
0.281089,1775669117.443266,599617938323578454,-249,-374,-943
0.286089,1775669117.443266,599617938323578454,-249,-374,-942
0.291089,1775669117.443266,599617938323578454,-253,-379,-941
0.296089,1775669117.443266,599617938323578454,-253,-376,-943
0.301089,1775669117.443266,599617938323578454,-250,-374,-942
0.306089,1775669117.443266,599617938323578454,-251,-373,-943
0.311089,1775669117.443266,599617938323578454,-247,-374,-943
0.316089,1775669117.443266,599617938323578454,-250,-376,-944
0.321089,1775669117.443266,599617938323578454,-248,-377,-942
0.326089,1775669117.443266,599617938323578454,-247,-378,-944
0.331089,1775669117.443266,599617938323578454,-244,-374,-946
0.336089,1775669117.443266,599617938323578454,-248,-375,-946
0.341089,1775669117.443266,599617938323578454,-247,-372,-948
0.346089,1775669117.443266,599617938323578454,-252,-374,-948
0.351089,1775669117.443266,599617938323578454,-256,-371,-947
0.352208,1775669117.623103,599617938499697806,-254,-373,-942
0.357208,1775669117.623103,599617938499697806,-250,-377,-942
0.362208,1775669117.623103,599617938499697806,-244,-378,-944
0.367208,1775669117.623103,599617938499697806,-244,-377,-944
0.372208,1775669117.623103,599617938499697806,-246,-374,-946
0.377208,1775669117.623103,599617938499697806,-252,-374,-941
0.382208,1775669117.623103,599617938499697806,-249,-376,-943
0.387208,1775669117.623103,599617938499697806,-249,-378,-945
0.392208,1775669117.623103,599617938499697806,-247,-380,-943
0.397208,1775669117.623103,599617938499697806,-251,-378,-943
0.402208,1775669117.623103,599617938499697806,-251,-375,-942
0.407208,1775669117.623103,599617938499697806,-251,-378,-944
0.412208,1775669117.623103,599617938499697806,-250,-377,-942
0.417208,1775669117.623103,599617938499697806,-252,-375,-944
0.422208,1775669117.623103,599617938499697806,-248,-373,-944
0.427208,1775669117.623103,599617938499697806,-250,-372,-945
0.432208,1775669117.623103,599617938499697806,-246,-368,-946
0.437208,1775669117.623103,599617938499697806,-243,-368,-946
0.442208,1775669117.623103,599617938499697806,-244,-371,-947
0.447208,1775669117.623103,599617938499697806,-248,-371,-945
0.452208,1775669117.623103,599617938499697806,-249,-372,-945
0.457208,1775669117.623103,599617938499697806,-244,-371,-947
0.462208,1775669117.623103,599617938499697806,-249,-369,-947
0.467208,1775669117.623103,599617938499697806,-249,-372,-944
0.472208,1775669117.623103,599617938499697806,-254,-370,-945
0.477208,1775669117.623103,599617938499697806,-253,-372,-946
0.482208,1775669117.623103,599617938499697806,-251,-373,-945
0.487208,1775669117.623103,599617938499697806,-255,-370,-947
0.492208,1775669117.623103,599617938499697806,-255,-373,-947
0.497208,1775669117.623103,599617938499697806,-255,-371,-948
0.502208,1775669117.623103,599617938499697806,-253,-375,-947
0.507208,1775669117.623103,599617938499697806,-253,-373,-946
0.512208,1775669117.623103,599617938499697806,-250,-373,-946
0.517208,1775669117.623103,599617938499697806,-250,-374,-946
0.522208,1775669117.623103,599617938499697806,-254,-372,-943
0.527208,1775669117.623103,599617938499697806,-247,-372,-946
0.528389,1775669117.801957,599617938675878240,-246,-372,-945
0.533389,1775669117.801957,599617938675878240,-250,-373,-944
0.538389,1775669117.801957,599617938675878240,-253,-371,-944
0.543389,1775669117.801957,599617938675878240,-256,-373,-944
0.548389,1775669117.801957,599617938675878240,-251,-369,-945
0.553389,1775669117.801957,599617938675878240,-250,-371,-945
0.558389,1775669117.801957,599617938675878240,-251,-373,-944
0.563389,1775669117.801957,599617938675878240,-250,-373,-945
0.568389,1775669117.801957,599617938675878240,-245,-371,-946
0.573389,1775669117.801957,599617938675878240,-246,-371,-945
0.578389,1775669117.801957,599617938675878240,-255,-370,-945
0.583389,1775669117.801957,599617938675878240,-250,-368,-939
0.588389,1775669117.801957,599617938675878240,-252,-363,-945
0.593389,1775669117.801957,599617938675878240,-255,-363,-943
0.598389,1775669117.801957,599617938675878240,-249,-363,-947
0.603389,1775669117.801957,599617938675878240,-251,-355,-950
0.608389,1775669117.801957,599617938675878240,-243,-361,-951
0.613389,1775669117.801957,599617938675878240,-253,-356,-948
0.618389,1775669117.801957,599617938675878240,-248,-365,-943
0.623389,1775669117.801957,599617938675878240,-255,-375,-939
0.628389,1775669117.801957,599617938675878240,-248,-377,-941
0.633389,1775669117.801957,599617938675878240,-243,-375,-944
0.638389,1775669117.801957,599617938675878240,-248,-373,-946
0.643389,1775669117.801957,599617938675878240,-247,-371,-947
0.648389,1775669117.801957,599617938675878240,-250,-365,-949
0.653389,1775669117.801957,599617938675878240,-244,-367,-949
0.658389,1775669117.801957,599617938675878240,-243,-369,-947
0.663389,1775669117.801957,599617938675878240,-247,-370,-946
0.668389,1775669117.801957,599617938675878240,-249,-374,-947
0.673389,1775669117.801957,599617938675878240,-243,-373,-945
0.678389,1775669117.801957,599617938675878240,-243,-374,-944
0.683389,1775669117.801957,599617938675878240,-246,-370,-947
0.688389,1775669117.801957,599617938675878240,-248,-371,-946
0.693389,1775669117.801957,599617938675878240,-250,-374,-945
0.698389,1775669117.801957,599617938675878240,-247,-373,-945
0.703389,1775669117.801957,599617938675878240,-244,-374,-944
0.704569,1775669118.027327,599617938852058654,-241,-370,-945
0.709569,1775669118.027327,599617938852058654,-249,-369,-945
0.714569,1775669118.027327,599617938852058654,-251,-374,-942
0.719569,1775669118.027327,599617938852058654,-254,-372,-941
0.724569,1775669118.027327,599617938852058654,-254,-369,-945
0.729569,1775669118.027327,599617938852058654,-256,-374,-942
0.734569,1775669118.027327,599617938852058654,-256,-370,-944
0.739569,1775669118.027327,599617938852058654,-252,-370,-948
0.744569,1775669118.027327,599617938852058654,-250,-367,-949
0.749569,1775669118.027327,599617938852058654,-251,-366,-946
0.754569,1775669118.027327,599617938852058654,-255,-367,-947
0.759569,1775669118.027327,599617938852058654,-251,-370,-945
0.764569,1775669118.027327,599617938852058654,-251,-377,-946
0.769569,1775669118.027327,599617938852058654,-250,-368,-947
0.774569,1775669118.027327,599617938852058654,-247,-369,-949
0.779569,1775669118.027327,599617938852058654,-245,-370,-949
0.784569,1775669118.027327,599617938852058654,-247,-370,-948
0.789569,1775669118.027327,599617938852058654,-243,-371,-949
0.794569,1775669118.027327,599617938852058654,-245,-369,-947
0.799569,1775669118.027327,599617938852058654,-248,-367,-944
0.804569,1775669118.027327,599617938852058654,-249,-371,-946
0.809569,1775669118.027327,599617938852058654,-254,-369,-949
0.814569,1775669118.027327,599617938852058654,-258,-377,-945
0.819569,1775669118.027327,599617938852058654,-254,-373,-944
0.824569,1775669118.027327,599617938852058654,-246,-358,-953
0.829569,1775669118.027327,599617938852058654,-260,-357,-953
0.834569,1775669118.027327,599617938852058654,-258,-365,-951
0.839569,1775669118.027327,599617938852058654,-250,-371,-950
0.844569,1775669118.027327,599617938852058654,-258,-372,-949
0.849569,1775669118.027327,599617938852058654,-255,-373,-946
0.854569,1775669118.027327,599617938852058654,-259,-369,-943
0.859569,1775669118.027327,599617938852058654,-259,-369,-945
0.864569,1775669118.027327,599617938852058654,-250,-365,-944
0.869569,1775669118.027327,599617938852058654,-249,-365,-945
0.874569,1775669118.027327,599617938852058654,-251,-365,-944
0.879569,1775669118.027327,599617938852058654,-251,-365,-942
0.880689,1775669118.163446,599617939028178012,-247,-364,-945
0.885689,1775669118.163446,599617939028178012,-243,-365,-946
0.890689,1775669118.163446,599617939028178012,-243,-365,-947
0.895689,1775669118.163446,599617939028178012,-249,-367,-943
0.900689,1775669118.163446,599617939028178012,-250,-370,-942
0.905689,1775669118.163446,599617939028178012,-248,-372,-941
0.910689,1775669118.163446,599617939028178012,-250,-372,-939
0.915689,1775669118.163446,599617939028178012,-250,-371,-941
0.920689,1775669118.163446,599617939028178012,-252,-370,-944
0.925689,1775669118.163446,599617939028178012,-252,-367,-943
0.930689,1775669118.163446,599617939028178012,-248,-368,-944
0.935688,1775669118.163446,599617939028178012,-250,-370,-944
0.940688,1775669118.163446,599617939028178012,-246,-371,-946
0.945688,1775669118.163446,599617939028178012,-248,-370,-945
0.950688,1775669118.163446,599617939028178012,-245,-366,-947
0.955688,1775669118.163446,599617939028178012,-247,-362,-948
0.960688,1775669118.163446,599617939028178012,-245,-368,-947
0.965688,1775669118.163446,599617939028178012,-242,-368,-948
0.970688,1775669118.163446,599617939028178012,-241,-369,-949
0.975688,1775669118.163446,599617939028178012,-242,-372,-947
0.980688,1775669118.163446,599617939028178012,-243,-374,-948
0.985688,1775669118.163446,599617939028178012,-244,-373,-945
0.990688,1775669118.163446,599617939028178012,-243,-374,-949
0.995689,1775669118.163446,599617939028178012,-244,-373,-948
1.000689,1775669118.163446,599617939028178012,-246,-369,-949
1.005689,1775669118.163446,599617939028178012,-243,-370,-949
1.010689,1775669118.163446,599617939028178012,-248,-367,-952
1.015689,1775669118.163446,599617939028178012,-247,-361,-949
1.020689,1775669118.163446,599617939028178012,-245,-362,-950
1.025689,1775669118.163446,599617939028178012,-247,-366,-952
1.030689,1775669118.163446,599617939028178012,-243,-367,-948
1.035689,1775669118.163446,599617939028178012,-247,-362,-946
1.040689,1775669118.163446,599617939028178012,-248,-360,-945
1.045689,1775669118.163446,599617939028178012,-250,-362,-948
1.050689,1775669118.163446,599617939028178012,-248,-358,-947
1.055689,1775669118.163446,599617939028178012,-248,-367,-947
1.056838,1775669118.343690,599617939204327918,-250,-368,-947
1.061838,1775669118.343690,599617939204327918,-246,-365,-947
1.066838,1775669118.343690,599617939204327918,-245,-365,-947
1.071838,1775669118.343690,599617939204327918,-247,-367,-950
1.076838,1775669118.343690,599617939204327918,-242,-370,-948
1.081838,1775669118.343690,599617939204327918,-242,-371,-946
1.086838,1775669118.343690,599617939204327918,-243,-373,-945
1.091838,1775669118.343690,599617939204327918,-245,-370,-946
1.096838,1775669118.343690,599617939204327918,-246,-370,-945
1.101838,1775669118.343690,599617939204327918,-245,-369,-945
1.106838,1775669118.343690,599617939204327918,-247,-366,-946
1.111838,1775669118.343690,599617939204327918,-252,-364,-948
1.116838,1775669118.343690,599617939204327918,-250,-367,-946
1.121838,1775669118.343690,599617939204327918,-247,-365,-951
1.126838,1775669118.343690,599617939204327918,-244,-370,-948
1.131838,1775669118.343690,599617939204327918,-243,-365,-949
1.136838,1775669118.343690,599617939204327918,-244,-367,-948
1.141838,1775669118.343690,599617939204327918,-241,-372,-948
1.146838,1775669118.343690,599617939204327918,-242,-374,-948
1.151838,1775669118.343690,599617939204327918,-243,-373,-946
1.156838,1775669118.343690,599617939204327918,-241,-371,-948
1.161838,1775669118.343690,599617939204327918,-246,-369,-947
1.166838,1775669118.343690,599617939204327918,-248,-371,-944
1.171838,1775669118.343690,599617939204327918,-245,-368,-946
1.176838,1775669118.343690,599617939204327918,-247,-365,-948
1.181838,1775669118.343690,599617939204327918,-246,-364,-948
1.186838,1775669118.343690,599617939204327918,-246,-366,-947
1.191838,1775669118.343690,599617939204327918,-247,-364,-949
1.196838,1775669118.343690,599617939204327918,-242,-367,-945
1.201838,1775669118.343690,599617939204327918,-240,-365,-948
1.206838,1775669118.343690,599617939204327918,-239,-370,-948
1.211838,1775669118.343690,599617939204327918,-240,-365,-948
1.216838,1775669118.343690,599617939204327918,-240,-369,-946
1.221838,1775669118.343690,599617939204327918,-244,-367,-947
1.226838,1775669118.343690,599617939204327918,-243,-366,-946
1.231838,1775669118.343690,599617939204327918,-246,-359,-950
1.233019,1775669118.523167,599617939380508342,-253,-357,-948
1.238019,1775669118.523167,599617939380508342,-251,-362,-948
1.243019,1775669118.523167,599617939380508342,-248,-362,-947
1.248019,1775669118.523167,599617939380508342,-252,-361,-947
1.253019,1775669118.523167,599617939380508342,-253,-360,-949
1.258019,1775669118.523167,599617939380508342,-249,-364,-949
1.263019,1775669118.523167,599617939380508342,-246,-364,-951
1.268019,1775669118.523167,599617939380508342,-243,-367,-951
1.273019,1775669118.523167,599617939380508342,-240,-365,-951
1.278019,1775669118.523167,599617939380508342,-241,-364,-947
1.283019,1775669118.523167,599617939380508342,-241,-365,-946
1.288019,1775669118.523167,599617939380508342,-244,-365,-945
1.293019,1775669118.523167,599617939380508342,-240,-368,-947
1.298019,1775669118.523167,599617939380508342,-243,-371,-946
1.303019,1775669118.523167,599617939380508342,-242,-372,-943
1.308019,1775669118.523167,599617939380508342,-242,-368,-948
1.313019,1775669118.523167,599617939380508342,-247,-369,-948
1.318019,1775669118.523167,599617939380508342,-243,-372,-948
1.323019,1775669118.523167,599617939380508342,-245,-372,-948
1.328019,1775669118.523167,599617939380508342,-248,-372,-949
1.333019,1775669118.523167,599617939380508342,-246,-369,-947
1.338019,1775669118.523167,599617939380508342,-247,-369,-948
1.343019,1775669118.523167,599617939380508342,-246,-364,-948
1.348019,1775669118.523167,599617939380508342,-242,-366,-947
1.353019,1775669118.523167,599617939380508342,-248,-366,-945
1.358019,1775669118.523167,599617939380508342,-248,-366,-946
1.363019,1775669118.523167,599617939380508342,-249,-366,-946
1.368019,1775669118.523167,599617939380508342,-248,-366,-948
1.373019,1775669118.523167,599617939380508342,-247,-365,-948
1.378019,1775669118.523167,599617939380508342,-246,-365,-945
1.383019,1775669118.523167,599617939380508342,-250,-364,-944
1.388019,1775669118.523167,599617939380508342,-245,-360,-943
1.393019,1775669118.523167,599617939380508342,-253,-354,-947
1.398019,1775669118.523167,599617939380508342,-247,-354,-947
1.403019,1775669118.523167,599617939380508342,-239,-352,-948
1.408019,1775669118.523167,599617939380508342,-240,-359,-951
1.409138,1775669118.703623,599617939556627700,-242,-355,-954
1.414138,1775669118.703623,599617939556627700,-248,-361,-947
1.419138,1775669118.703623,599617939556627700,-247,-369,-944
1.424138,1775669118.703623,599617939556627700,-252,-372,-945
1.429138,1775669118.703623,599617939556627700,-248,-370,-945
1.434138,1775669118.703623,599617939556627700,-244,-364,-947
1.439138,1775669118.703623,599617939556627700,-245,-363,-950
1.444138,1775669118.703623,599617939556627700,-242,-356,-954
1.449138,1775669118.703623,599617939556627700,-241,-356,-957
1.454138,1775669118.703623,599617939556627700,-240,-356,-958
1.459138,1775669118.703623,599617939556627700,-248,-361,-956
1.464138,1775669118.703623,599617939556627700,-249,-366,-954
1.469138,1775669118.703623,599617939556627700,-249,-367,-950
1.474138,1775669118.703623,599617939556627700,-248,-370,-950
1.479138,1775669118.703623,599617939556627700,-246,-371,-948
1.484138,1775669118.703623,599617939556627700,-249,-370,-947
1.489138,1775669118.703623,599617939556627700,-248,-371,-946
1.494138,1775669118.703623,599617939556627700,-248,-363,-951
1.499138,1775669118.703623,599617939556627700,-246,-361,-947
1.504138,1775669118.703623,599617939556627700,-246,-365,-948
1.509138,1775669118.703623,599617939556627700,-247,-364,-947
1.514138,1775669118.703623,599617939556627700,-249,-361,-944
1.519138,1775669118.703623,599617939556627700,-247,-364,-947
1.524138,1775669118.703623,599617939556627700,-248,-361,-949
1.529138,1775669118.703623,599617939556627700,-247,-367,-949
1.534138,1775669118.703623,599617939556627700,-246,-367,-948
1.539138,1775669118.703623,599617939556627700,-250,-365,-948
1.544138,1775669118.703623,599617939556627700,-248,-359,-950
1.549138,1775669118.703623,599617939556627700,-246,-359,-949
1.554138,1775669118.703623,599617939556627700,-247,-356,-951
1.559138,1775669118.703623,599617939556627700,-243,-359,-949
1.564138,1775669118.703623,599617939556627700,-246,-362,-948
1.569138,1775669118.703623,599617939556627700,-244,-360,-948
1.574138,1775669118.703623,599617939556627700,-243,-365,-948
1.579138,1775669118.703623,599617939556627700,-240,-367,-950
1.584138,1775669118.703623,599617939556627700,-240,-362,-948
1.585319,1775669118.885675,599617939732808134,-239,-362,-948
1.590319,1775669118.885675,599617939732808134,-241,-357,-950
1.595319,1775669118.885675,599617939732808134,-243,-360,-949
1.600319,1775669118.885675,599617939732808134,-240,-364,-947
1.605319,1775669118.885675,599617939732808134,-240,-361,-947
1.610319,1775669118.885675,599617939732808134,-247,-362,-945
1.615319,1775669118.885675,599617939732808134,-257,-375,-942
1.620319,1775669118.885675,599617939732808134,-237,-363,-941
1.625319,1775669118.885675,599617939732808134,-242,-340,-950
1.630319,1775669118.885675,599617939732808134,-247,-341,-949
1.635319,1775669118.885675,599617939732808134,-244,-352,-949
1.640319,1775669118.885675,599617939732808134,-244,-360,-950
1.645319,1775669118.885675,599617939732808134,-245,-360,-949
1.650319,1775669118.885675,599617939732808134,-247,-361,-948
1.655319,1775669118.885675,599617939732808134,-248,-362,-949
1.660319,1775669118.885675,599617939732808134,-249,-361,-947
1.665319,1775669118.885675,599617939732808134,-247,-362,-948
1.670319,1775669118.885675,599617939732808134,-245,-362,-948
1.675319,1775669118.885675,599617939732808134,-248,-364,-947
1.680319,1775669118.885675,599617939732808134,-248,-369,-947
1.685319,1775669118.885675,599617939732808134,-249,-367,-949
1.690319,1775669118.885675,599617939732808134,-246,-370,-949
1.695319,1775669118.885675,599617939732808134,-244,-372,-949
1.700319,1775669118.885675,599617939732808134,-246,-372,-950
1.705319,1775669118.885675,599617939732808134,-247,-368,-947
1.710319,1775669118.885675,599617939732808134,-247,-372,-949
1.715319,1775669118.885675,599617939732808134,-247,-367,-946
1.720319,1775669118.885675,599617939732808134,-241,-361,-949
1.725319,1775669118.885675,599617939732808134,-243,-361,-949
1.730319,1775669118.885675,599617939732808134,-242,-359,-949
1.735319,1775669118.885675,599617939732808134,-244,-359,-949
1.740319,1775669118.885675,599617939732808134,-248,-363,-950
1.745319,1775669118.885675,599617939732808134,-247,-365,-951
1.750319,1775669118.885675,599617939732808134,-244,-369,-953
1.755319,1775669118.885675,599617939732808134,-248,-373,-950
1.760319,1775669118.885675,599617939732808134,-246,-368,-949
1.761499,1775669119.062991,599617939908988548,-249,-367,-948
1.766499,1775669119.062991,599617939908988548,-250,-370,-949
1.771499,1775669119.062991,599617939908988548,-243,-369,-951
1.776499,1775669119.062991,599617939908988548,-246,-370,-950
1.781499,1775669119.062991,599617939908988548,-247,-367,-947
1.786499,1775669119.062991,599617939908988548,-247,-368,-949
1.791499,1775669119.062991,599617939908988548,-241,-366,-950
1.796499,1775669119.062991,599617939908988548,-244,-368,-948
1.801499,1775669119.062991,599617939908988548,-246,-364,-945
1.806499,1775669119.062991,599617939908988548,-243,-370,-943
1.811499,1775669119.062991,599617939908988548,-243,-370,-943
1.816499,1775669119.062991,599617939908988548,-246,-367,-948
1.821499,1775669119.062991,599617939908988548,-248,-365,-947
1.826499,1775669119.062991,599617939908988548,-242,-365,-947
1.831499,1775669119.062991,599617939908988548,-246,-363,-947
1.836499,1775669119.062991,599617939908988548,-245,-366,-948
1.841499,1775669119.062991,599617939908988548,-241,-365,-947
1.846499,1775669119.062991,599617939908988548,-243,-367,-947
1.851499,1775669119.062991,599617939908988548,-241,-365,-948
1.856499,1775669119.062991,599617939908988548,-239,-361,-947
1.861499,1775669119.062991,599617939908988548,-238,-367,-948
1.866499,1775669119.062991,599617939908988548,-241,-365,-950
1.871499,1775669119.062991,599617939908988548,-243,-365,-948
1.876499,1775669119.062991,599617939908988548,-244,-362,-946
1.881499,1775669119.062991,599617939908988548,-244,-365,-948
1.886499,1775669119.062991,599617939908988548,-246,-368,-948
1.891499,1775669119.062991,599617939908988548,-240,-370,-948
1.896499,1775669119.062991,599617939908988548,-242,-371,-950
1.901499,1775669119.062991,599617939908988548,-243,-369,-951
1.906499,1775669119.062991,599617939908988548,-246,-371,-951
1.911499,1775669119.062991,599617939908988548,-245,-369,-950
1.916499,1775669119.062991,599617939908988548,-243,-366,-949
1.921499,1775669119.062991,599617939908988548,-248,-364,-948
1.926499,1775669119.062991,599617939908988548,-242,-365,-949
1.931499,1775669119.062991,599617939908988548,-242,-362,-950
1.936499,1775669119.062991,599617939908988548,-242,-366,-948
1.937649,1775669119.243407,599617940085138434,-240,-365,-946
1.942649,1775669119.243407,599617940085138434,-242,-363,-949
1.947649,1775669119.243407,599617940085138434,-241,-365,-949
1.952649,1775669119.243407,599617940085138434,-242,-365,-946
1.957649,1775669119.243407,599617940085138434,-243,-368,-947
1.962649,1775669119.243407,599617940085138434,-244,-367,-946
1.967649,1775669119.243407,599617940085138434,-243,-366,-947
1.972649,1775669119.243407,599617940085138434,-241,-364,-962
1.977649,1775669119.243407,599617940085138434,-231,-371,-945
1.982649,1775669119.243407,599617940085138434,-248,-366,-948
1.987649,1775669119.243407,599617940085138434,-251,-360,-942
1.992649,1775669119.243407,599617940085138434,-247,-366,-946
1.997649,1775669119.243407,599617940085138434,-242,-369,-948
2.002649,1775669119.243407,599617940085138434,-241,-369,-947
2.007649,1775669119.243407,599617940085138434,-242,-366,-951
2.012649,1775669119.243407,599617940085138434,-245,-365,-950
2.017649,1775669119.243407,599617940085138434,-248,-367,-947
2.022649,1775669119.243407,599617940085138434,-244,-369,-944
2.027649,1775669119.243407,599617940085138434,-238,-363,-948
2.032649,1775669119.243407,599617940085138434,-241,-350,-953
2.037649,1775669119.243407,599617940085138434,-240,-354,-952
2.042649,1775669119.243407,599617940085138434,-238,-365,-948
2.047649,1775669119.243407,599617940085138434,-246,-364,-948
2.052649,1775669119.243407,599617940085138434,-244,-363,-948
2.057649,1775669119.243407,599617940085138434,-244,-371,-945
2.062649,1775669119.243407,599617940085138434,-243,-375,-939
2.067649,1775669119.243407,599617940085138434,-249,-379,-943
2.072649,1775669119.243407,599617940085138434,-247,-376,-942
2.077649,1775669119.243407,599617940085138434,-238,-375,-948
2.082649,1775669119.243407,599617940085138434,-239,-369,-951
2.087649,1775669119.243407,599617940085138434,-237,-365,-954
2.092649,1775669119.243407,599617940085138434,-237,-360,-958
2.097649,1775669119.243407,599617940085138434,-246,-365,-956
2.102649,1775669119.243407,599617940085138434,-247,-370,-952
2.107649,1775669119.243407,599617940085138434,-250,-369,-947
2.112649,1775669119.243407,599617940085138434,-247,-370,-947
2.113860,1775669119.377932,599617940261349386,-244,-371,-947
2.118860,1775669119.377932,599617940261349386,-244,-370,-946
2.123860,1775669119.377932,599617940261349386,-247,-369,-948
2.128860,1775669119.377932,599617940261349386,-248,-369,-945
2.133860,1775669119.377932,599617940261349386,-244,-369,-948
2.138860,1775669119.377932,599617940261349386,-244,-370,-950
2.143860,1775669119.377932,599617940261349386,-244,-365,-951
2.148860,1775669119.377932,599617940261349386,-247,-366,-949
2.153860,1775669119.377932,599617940261349386,-246,-369,-950
2.158860,1775669119.377932,599617940261349386,-243,-368,-947
2.163860,1775669119.377932,599617940261349386,-247,-366,-946
2.168860,1775669119.377932,599617940261349386,-244,-364,-947
2.173860,1775669119.377932,599617940261349386,-244,-359,-948
2.178860,1775669119.377932,599617940261349386,-243,-364,-950
2.183860,1775669119.377932,599617940261349386,-239,-365,-946
2.188860,1775669119.377932,599617940261349386,-240,-362,-948
2.193860,1775669119.377932,599617940261349386,-239,-364,-948
2.198860,1775669119.377932,599617940261349386,-241,-362,-948
2.203860,1775669119.377932,599617940261349386,-243,-368,-947
2.208860,1775669119.377932,599617940261349386,-243,-366,-945
2.213860,1775669119.377932,599617940261349386,-244,-366,-946
2.218860,1775669119.377932,599617940261349386,-244,-365,-947
2.223860,1775669119.377932,599617940261349386,-249,-362,-948
2.228860,1775669119.377932,599617940261349386,-246,-364,-948
2.233860,1775669119.377932,599617940261349386,-245,-367,-950
2.238860,1775669119.377932,599617940261349386,-247,-369,-951
2.243860,1775669119.377932,599617940261349386,-243,-371,-952
2.248860,1775669119.377932,599617940261349386,-244,-369,-949
2.253860,1775669119.377932,599617940261349386,-260,-376,-949
2.258860,1775669119.377932,599617940261349386,-243,-373,-942
2.263860,1775669119.377932,599617940261349386,-232,-356,-955
2.268860,1775669119.377932,599617940261349386,-243,-346,-958
2.273860,1775669119.377932,599617940261349386,-235,-351,-954
2.278860,1775669119.377932,599617940261349386,-239,-364,-947
2.283860,1775669119.377932,599617940261349386,-245,-364,-948
2.288860,1775669119.377932,599617940261349386,-244,-362,-950
2.290010,1775669119.561551,599617940437499262,-246,-368,-944
2.295010,1775669119.561551,599617940437499262,-244,-367,-949
2.300010,1775669119.561551,599617940437499262,-245,-364,-946
2.305010,1775669119.561551,599617940437499262,-246,-362,-949
2.310010,1775669119.561551,599617940437499262,-247,-367,-946
2.315010,1775669119.561551,599617940437499262,-246,-367,-947
2.320010,1775669119.561551,599617940437499262,-250,-369,-947
2.325010,1775669119.561551,599617940437499262,-250,-367,-951
2.330010,1775669119.561551,599617940437499262,-249,-368,-949
2.335010,1775669119.561551,599617940437499262,-250,-367,-947
2.340010,1775669119.561551,599617940437499262,-244,-365,-946
2.345010,1775669119.561551,599617940437499262,-244,-363,-944
2.350010,1775669119.561551,599617940437499262,-244,-369,-944
2.355010,1775669119.561551,599617940437499262,-244,-366,-947
2.360010,1775669119.561551,599617940437499262,-241,-370,-948
2.365010,1775669119.561551,599617940437499262,-242,-367,-950
2.370010,1775669119.561551,599617940437499262,-243,-366,-948
2.375010,1775669119.561551,599617940437499262,-245,-368,-947
2.380010,1775669119.561551,599617940437499262,-244,-366,-949
2.385010,1775669119.561551,599617940437499262,-244,-363,-948
2.390010,1775669119.561551,599617940437499262,-246,-364,-948
2.395010,1775669119.561551,599617940437499262,-243,-369,-948
2.400010,1775669119.561551,599617940437499262,-249,-363,-947
2.405010,1775669119.561551,599617940437499262,-245,-359,-951
2.410010,1775669119.561551,599617940437499262,-242,-356,-948
2.415010,1775669119.561551,599617940437499262,-246,-356,-947
2.420010,1775669119.561551,599617940437499262,-245,-359,-947
2.425010,1775669119.561551,599617940437499262,-250,-362,-948
2.430010,1775669119.561551,599617940437499262,-248,-369,-947
2.435010,1775669119.561551,599617940437499262,-248,-368,-946
2.440010,1775669119.561551,599617940437499262,-247,-366,-949
2.445010,1775669119.561551,599617940437499262,-248,-365,-949
2.450010,1775669119.561551,599617940437499262,-245,-365,-946
2.455010,1775669119.561551,599617940437499262,-247,-361,-948
2.460010,1775669119.561551,599617940437499262,-243,-360,-949
2.465010,1775669119.561551,599617940437499262,-243,-362,-949
2.466160,1775669119.738466,599617940613649158,-241,-362,-948
2.471160,1775669119.738466,599617940613649158,-244,-371,-946
2.476160,1775669119.738466,599617940613649158,-247,-370,-947
2.481160,1775669119.738466,599617940613649158,-245,-366,-948
2.486160,1775669119.738466,599617940613649158,-245,-367,-950
2.491160,1775669119.738466,599617940613649158,-242,-365,-950
2.496160,1775669119.738466,599617940613649158,-243,-364,-951
2.501160,1775669119.738466,599617940613649158,-245,-363,-950
2.506160,1775669119.738466,599617940613649158,-245,-362,-948
2.511160,1775669119.738466,599617940613649158,-244,-366,-949
2.516160,1775669119.738466,599617940613649158,-245,-364,-948
2.521160,1775669119.738466,599617940613649158,-244,-364,-947
2.526160,1775669119.738466,599617940613649158,-246,-368,-946
2.531160,1775669119.738466,599617940613649158,-243,-368,-948
2.536160,1775669119.738466,599617940613649158,-242,-367,-949
2.541160,1775669119.738466,599617940613649158,-242,-366,-948
2.546160,1775669119.738466,599617940613649158,-243,-367,-949
2.551160,1775669119.738466,599617940613649158,-240,-371,-948
2.556159,1775669119.738466,599617940613649158,-239,-372,-946
2.561159,1775669119.738466,599617940613649158,-241,-375,-946
2.566159,1775669119.738466,599617940613649158,-240,-371,-944
2.571159,1775669119.738466,599617940613649158,-239,-361,-947
2.576159,1775669119.738466,599617940613649158,-247,-350,-951
2.581160,1775669119.738466,599617940613649158,-241,-353,-947
2.586160,1775669119.738466,599617940613649158,-239,-358,-951
2.591160,1775669119.738466,599617940613649158,-244,-353,-950
2.596160,1775669119.738466,599617940613649158,-248,-356,-947
2.601160,1775669119.738466,599617940613649158,-247,-361,-946
2.606160,1775669119.738466,599617940613649158,-253,-368,-940
2.611160,1775669119.738466,599617940613649158,-253,-372,-946
2.616160,1775669119.738466,599617940613649158,-245,-375,-945
2.621160,1775669119.738466,599617940613649158,-243,-375,-945
2.626160,1775669119.738466,599617940613649158,-240,-370,-950
2.631160,1775669119.738466,599617940613649158,-236,-362,-956
2.636160,1775669119.738466,599617940613649158,-232,-362,-957
2.641160,1775669119.738466,599617940613649158,-231,-360,-955
2.642340,1775669119.964119,599617940789829582,-238,-368,-952
2.647340,1775669119.964119,599617940789829582,-249,-371,-950
2.652340,1775669119.964119,599617940789829582,-253,-372,-944
2.657340,1775669119.964119,599617940789829582,-256,-371,-944
2.662340,1775669119.964119,599617940789829582,-256,-368,-946
2.667340,1775669119.964119,599617940789829582,-253,-370,-947
2.672340,1775669119.964119,599617940789829582,-250,-369,-946
2.677340,1775669119.964119,599617940789829582,-252,-369,-947
2.682340,1775669119.964119,599617940789829582,-252,-365,-948
2.687340,1775669119.964119,599617940789829582,-253,-366,-949
2.692340,1775669119.964119,599617940789829582,-251,-368,-949
2.697340,1775669119.964119,599617940789829582,-249,-371,-950
2.702340,1775669119.964119,599617940789829582,-252,-372,-949
2.707340,1775669119.964119,599617940789829582,-250,-372,-951
2.712340,1775669119.964119,599617940789829582,-250,-369,-949
2.717340,1775669119.964119,599617940789829582,-247,-366,-949
2.722340,1775669119.964119,599617940789829582,-244,-359,-948
2.727340,1775669119.964119,599617940789829582,-244,-360,-948
2.732340,1775669119.964119,599617940789829582,-246,-360,-948
2.737340,1775669119.964119,599617940789829582,-248,-357,-946
2.742340,1775669119.964119,599617940789829582,-246,-361,-946
2.747340,1775669119.964119,599617940789829582,-246,-366,-947
2.752340,1775669119.964119,599617940789829582,-247,-369,-946
2.757340,1775669119.964119,599617940789829582,-245,-371,-946
2.762340,1775669119.964119,599617940789829582,-243,-370,-948
2.767340,1775669119.964119,599617940789829582,-238,-370,-948
2.772340,1775669119.964119,599617940789829582,-241,-370,-947
2.777340,1775669119.964119,599617940789829582,-239,-368,-946
2.782340,1775669119.964119,599617940789829582,-239,-368,-947
2.787340,1775669119.964119,599617940789829582,-244,-365,-947
2.792340,1775669119.964119,599617940789829582,-248,-366,-949
2.797340,1775669119.964119,599617940789829582,-260,-375,-944
2.802340,1775669119.964119,599617940789829582,-235,-365,-944
2.807340,1775669119.964119,599617940789829582,-243,-351,-951
2.812340,1775669119.964119,599617940789829582,-253,-356,-950
2.817340,1775669119.964119,599617940789829582,-243,-366,-949
2.818520,1775669120.099284,599617940966009996,-242,-366,-943
2.823520,1775669120.099284,599617940966009996,-244,-364,-950
2.828520,1775669120.099284,599617940966009996,-239,-366,-948
2.833520,1775669120.099284,599617940966009996,-242,-369,-948
2.838520,1775669120.099284,599617940966009996,-244,-371,-944
2.843520,1775669120.099284,599617940966009996,-239,-371,-944
2.848520,1775669120.099284,599617940966009996,-240,-372,-945
2.853520,1775669120.099284,599617940966009996,-245,-371,-944
2.858520,1775669120.099284,599617940966009996,-242,-371,-946
2.863520,1775669120.099284,599617940966009996,-245,-368,-947
2.868520,1775669120.099284,599617940966009996,-245,-371,-947
2.873520,1775669120.099284,599617940966009996,-246,-368,-948
2.878520,1775669120.099284,599617940966009996,-246,-374,-946
2.883520,1775669120.099284,599617940966009996,-250,-375,-945
2.888520,1775669120.099284,599617940966009996,-249,-371,-946
2.893520,1775669120.099284,599617940966009996,-244,-371,-946
2.898520,1775669120.099284,599617940966009996,-240,-370,-947
2.903520,1775669120.099284,599617940966009996,-242,-370,-947
2.908520,1775669120.099284,599617940966009996,-238,-369,-948
2.913520,1775669120.099284,599617940966009996,-240,-366,-946
2.918520,1775669120.099284,599617940966009996,-242,-368,-948
2.923520,1775669120.099284,599617940966009996,-240,-372,-946
2.928520,1775669120.099284,599617940966009996,-243,-368,-948
2.933520,1775669120.099284,599617940966009996,-242,-365,-948
2.938520,1775669120.099284,599617940966009996,-246,-369,-947
2.943520,1775669120.099284,599617940966009996,-240,-370,-947
2.948520,1775669120.099284,599617940966009996,-239,-370,-949
2.953520,1775669120.099284,599617940966009996,-241,-368,-949
2.958520,1775669120.099284,599617940966009996,-240,-372,-948
2.963520,1775669120.099284,599617940966009996,-245,-372,-948
2.968520,1775669120.099284,599617940966009996,-243,-375,-948
2.973520,1775669120.099284,599617940966009996,-245,-375,-948
2.978520,1775669120.099284,599617940966009996,-248,-373,-946
2.983520,1775669120.099284,599617940966009996,-249,-370,-946
2.988520,1775669120.099284,599617940966009996,-249,-369,-946
2.993520,1775669120.099284,599617940966009996,-246,-369,-947
2.994701,1775669120.278137,599617941142190410,-244,-369,-948
2.999701,1775669120.278137,599617941142190410,-245,-371,-949
3.004701,1775669120.278137,599617941142190410,-247,-371,-948
3.009701,1775669120.278137,599617941142190410,-243,-375,-946
3.014701,1775669120.278137,599617941142190410,-244,-376,-945
3.019701,1775669120.278137,599617941142190410,-241,-375,-947
3.024701,1775669120.278137,599617941142190410,-244,-370,-948
3.029701,1775669120.278137,599617941142190410,-242,-372,-947
3.034701,1775669120.278137,599617941142190410,-244,-367,-947
3.039701,1775669120.278137,599617941142190410,-244,-368,-944
3.044701,1775669120.278137,599617941142190410,-244,-366,-944
3.049701,1775669120.278137,599617941142190410,-241,-367,-947
3.054701,1775669120.278137,599617941142190410,-240,-371,-946
3.059701,1775669120.278137,599617941142190410,-240,-372,-948
3.064701,1775669120.278137,599617941142190410,-242,-370,-947
3.069701,1775669120.278137,599617941142190410,-243,-370,-945
3.074701,1775669120.278137,599617941142190410,-244,-369,-948
3.079701,1775669120.278137,599617941142190410,-245,-369,-947
3.084701,1775669120.278137,599617941142190410,-245,-367,-947
3.089701,1775669120.278137,599617941142190410,-246,-371,-945
3.094701,1775669120.278137,599617941142190410,-245,-374,-948
3.099701,1775669120.278137,599617941142190410,-247,-373,-948
3.104701,1775669120.278137,599617941142190410,-244,-374,-947
3.109701,1775669120.278137,599617941142190410,-244,-374,-948
3.114701,1775669120.278137,599617941142190410,-243,-376,-948
3.119701,1775669120.278137,599617941142190410,-244,-375,-948
3.124701,1775669120.278137,599617941142190410,-245,-374,-947
3.129701,1775669120.278137,599617941142190410,-242,-372,-948
3.134701,1775669120.278137,599617941142190410,-241,-370,-948
3.139701,1775669120.278137,599617941142190410,-239,-369,-948
3.144701,1775669120.278137,599617941142190410,-241,-365,-946
3.149701,1775669120.278137,599617941142190410,-244,-366,-946
3.154701,1775669120.278137,599617941142190410,-245,-367,-947
3.159701,1775669120.278137,599617941142190410,-240,-369,-947
3.164701,1775669120.278137,599617941142190410,-247,-368,-947
3.169701,1775669120.278137,599617941142190410,-245,-367,-948
3.170881,1775669120.460251,599617941318370824,-240,-368,-949
3.175881,1775669120.460251,599617941318370824,-243,-370,-946
3.180881,1775669120.460251,599617941318370824,-242,-371,-948
3.185881,1775669120.460251,599617941318370824,-241,-371,-945
3.190881,1775669120.460251,599617941318370824,-248,-372,-946
3.195881,1775669120.460251,599617941318370824,-247,-373,-946
3.200881,1775669120.460251,599617941318370824,-245,-371,-946
3.205881,1775669120.460251,599617941318370824,-247,-372,-947
3.210881,1775669120.460251,599617941318370824,-247,-366,-946
3.215881,1775669120.460251,599617941318370824,-246,-371,-947
3.220881,1775669120.460251,599617941318370824,-247,-370,-946
3.225881,1775669120.460251,599617941318370824,-245,-370,-945
3.230881,1775669120.460251,599617941318370824,-245,-368,-945
3.235881,1775669120.460251,599617941318370824,-244,-374,-946
3.240881,1775669120.460251,599617941318370824,-245,-375,-946
3.245881,1775669120.460251,599617941318370824,-242,-372,-944
3.250881,1775669120.460251,599617941318370824,-244,-367,-947
3.255881,1775669120.460251,599617941318370824,-243,-368,-947
3.260881,1775669120.460251,599617941318370824,-242,-367,-948
3.265881,1775669120.460251,599617941318370824,-243,-370,-947
3.270881,1775669120.460251,599617941318370824,-245,-369,-949
3.275881,1775669120.460251,599617941318370824,-248,-369,-946
3.280881,1775669120.460251,599617941318370824,-245,-368,-946
3.285881,1775669120.460251,599617941318370824,-244,-369,-948
3.290881,1775669120.460251,599617941318370824,-243,-370,-947
3.295881,1775669120.460251,599617941318370824,-244,-370,-946
3.300881,1775669120.460251,599617941318370824,-244,-374,-945
3.305881,1775669120.460251,599617941318370824,-247,-370,-945
3.310881,1775669120.460251,599617941318370824,-247,-373,-944
3.315881,1775669120.460251,599617941318370824,-246,-376,-943
3.320881,1775669120.460251,599617941318370824,-248,-376,-944
3.325881,1775669120.460251,599617941318370824,-250,-374,-946
3.330881,1775669120.460251,599617941318370824,-251,-371,-943
3.335881,1775669120.460251,599617941318370824,-249,-375,-943
3.340881,1775669120.460251,599617941318370824,-241,-364,-947
3.345881,1775669120.460251,599617941318370824,-249,-364,-949
3.347001,1775669120.639029,599617941494490182,-236,-370,-949
3.352001,1775669120.639029,599617941494490182,-237,-368,-953
3.357001,1775669120.639029,599617941494490182,-241,-359,-952
3.362001,1775669120.639029,599617941494490182,-241,-363,-947
3.367001,1775669120.639029,599617941494490182,-244,-371,-943
3.372001,1775669120.639029,599617941494490182,-255,-378,-937
3.377001,1775669120.639029,599617941494490182,-247,-379,-940
3.382001,1775669120.639029,599617941494490182,-240,-375,-943
3.387001,1775669120.639029,599617941494490182,-243,-368,-948
3.392001,1775669120.639029,599617941494490182,-239,-365,-949
3.397001,1775669120.639029,599617941494490182,-240,-367,-953
3.402001,1775669120.639029,599617941494490182,-241,-367,-952
3.407001,1775669120.639029,599617941494490182,-247,-371,-950
3.412001,1775669120.639029,599617941494490182,-252,-372,-945
3.417001,1775669120.639029,599617941494490182,-253,-374,-945
3.422001,1775669120.639029,599617941494490182,-258,-367,-942
3.427001,1775669120.639029,599617941494490182,-246,-374,-947
3.432001,1775669120.639029,599617941494490182,-244,-373,-947
3.437001,1775669120.639029,599617941494490182,-241,-372,-945
3.442001,1775669120.639029,599617941494490182,-241,-371,-948
3.447001,1775669120.639029,599617941494490182,-237,-372,-947
3.452001,1775669120.639029,599617941494490182,-238,-371,-948
3.457001,1775669120.639029,599617941494490182,-242,-374,-947
3.462001,1775669120.639029,599617941494490182,-247,-372,-949
3.467001,1775669120.639029,599617941494490182,-251,-373,-949
3.472001,1775669120.639029,599617941494490182,-250,-372,-948
3.477001,1775669120.639029,599617941494490182,-254,-371,-948
3.482001,1775669120.639029,599617941494490182,-255,-365,-946
3.487001,1775669120.639029,599617941494490182,-249,-365,-947
3.492001,1775669120.639029,599617941494490182,-246,-369,-947
3.497001,1775669120.639029,599617941494490182,-245,-369,-948
3.502001,1775669120.639029,599617941494490182,-240,-368,-946
3.507001,1775669120.639029,599617941494490182,-237,-366,-946
3.512001,1775669120.639029,599617941494490182,-239,-372,-941
3.517001,1775669120.639029,599617941494490182,-237,-372,-941
3.522001,1775669120.639029,599617941494490182,-238,-372,-941
3.523151,1775669120.862945,599617941670640088,-234,-369,-943
3.528151,1775669120.862945,599617941670640088,-238,-370,-945
3.533151,1775669120.862945,599617941670640088,-239,-373,-946
3.538151,1775669120.862945,599617941670640088,-241,-371,-948
3.543151,1775669120.862945,599617941670640088,-243,-373,-948
3.548151,1775669120.862945,599617941670640088,-247,-371,-948
3.553151,1775669120.862945,599617941670640088,-243,-373,-946
3.558151,1775669120.862945,599617941670640088,-246,-371,-946
3.563151,1775669120.862945,599617941670640088,-259,-377,-944
3.568151,1775669120.862945,599617941670640088,-245,-370,-942
3.573151,1775669120.862945,599617941670640088,-237,-360,-951
3.578151,1775669120.862945,599617941670640088,-247,-367,-948
3.583151,1775669120.862945,599617941670640088,-246,-369,-947
3.588151,1775669120.862945,599617941670640088,-247,-371,-948
3.593150,1775669120.862945,599617941670640088,-244,-370,-947
3.598150,1775669120.862945,599617941670640088,-246,-368,-947
3.603150,1775669120.862945,599617941670640088,-246,-368,-948
3.608150,1775669120.862945,599617941670640088,-249,-368,-945
3.613150,1775669120.862945,599617941670640088,-247,-372,-945
3.618150,1775669120.862945,599617941670640088,-247,-373,-944
3.623150,1775669120.862945,599617941670640088,-249,-372,-945
3.628150,1775669120.862945,599617941670640088,-246,-371,-946
3.633150,1775669120.862945,599617941670640088,-246,-372,-948
3.638151,1775669120.862945,599617941670640088,-245,-373,-947
3.643151,1775669120.862945,599617941670640088,-244,-370,-945
3.648151,1775669120.862945,599617941670640088,-246,-372,-945
3.653151,1775669120.862945,599617941670640088,-250,-373,-944
3.658151,1775669120.862945,599617941670640088,-246,-373,-946
3.663151,1775669120.862945,599617941670640088,-245,-375,-944
3.668151,1775669120.862945,599617941670640088,-242,-378,-947
3.673151,1775669120.862945,599617941670640088,-242,-375,-947
3.678151,1775669120.862945,599617941670640088,-243,-376,-945
3.683151,1775669120.862945,599617941670640088,-246,-376,-948
3.688151,1775669120.862945,599617941670640088,-244,-375,-946
3.693151,1775669120.862945,599617941670640088,-244,-373,-947
3.698151,1775669120.862945,599617941670640088,-248,-376,-947
3.699270,1775669120.998056,599617941846759456,-247,-373,-944
3.704270,1775669120.998056,599617941846759456,-246,-376,-946
3.709270,1775669120.998056,599617941846759456,-248,-371,-944
3.714270,1775669120.998056,599617941846759456,-250,-374,-945
3.719270,1775669120.998056,599617941846759456,-249,-374,-944
3.724270,1775669120.998056,599617941846759456,-250,-373,-944
3.729270,1775669120.998056,599617941846759456,-249,-377,-945
3.734270,1775669120.998056,599617941846759456,-250,-378,-947
3.739270,1775669120.998056,599617941846759456,-247,-374,-949
3.744270,1775669120.998056,599617941846759456,-245,-371,-947
3.749270,1775669120.998056,599617941846759456,-244,-371,-948
3.754270,1775669120.998056,599617941846759456,-241,-373,-945
3.759270,1775669120.998056,599617941846759456,-240,-375,-944
3.764270,1775669120.998056,599617941846759456,-245,-373,-948
3.769270,1775669120.998056,599617941846759456,-248,-374,-947
3.774270,1775669120.998056,599617941846759456,-245,-372,-946
3.779270,1775669120.998056,599617941846759456,-245,-374,-944
3.784270,1775669120.998056,599617941846759456,-243,-373,-946
3.789270,1775669120.998056,599617941846759456,-243,-373,-948
3.794270,1775669120.998056,599617941846759456,-245,-374,-948
3.799270,1775669120.998056,599617941846759456,-244,-371,-946
3.804270,1775669120.998056,599617941846759456,-244,-371,-948
3.809270,1775669120.998056,599617941846759456,-248,-375,-946
3.814270,1775669120.998056,599617941846759456,-249,-375,-944
3.819270,1775669120.998056,599617941846759456,-245,-373,-946
3.824270,1775669120.998056,599617941846759456,-247,-376,-942
3.829270,1775669120.998056,599617941846759456,-249,-375,-942
3.834270,1775669120.998056,599617941846759456,-244,-375,-944
3.839270,1775669120.998056,599617941846759456,-241,-372,-946
3.844270,1775669120.998056,599617941846759456,-241,-371,-946
3.849270,1775669120.998056,599617941846759456,-243,-372,-945
3.854270,1775669120.998056,599617941846759456,-242,-375,-944
3.859270,1775669120.998056,599617941846759456,-241,-374,-944
3.864270,1775669120.998056,599617941846759456,-242,-374,-945
3.869270,1775669120.998056,599617941846759456,-241,-374,-944
3.874270,1775669120.998056,599617941846759456,-246,-372,-943
3.875389,1775669121.177309,599617942022878834,-243,-373,-945
3.880389,1775669121.177309,599617942022878834,-247,-375,-945
3.885389,1775669121.177309,599617942022878834,-248,-374,-944
3.890389,1775669121.177309,599617942022878834,-250,-374,-943
3.895389,1775669121.177309,599617942022878834,-243,-375,-945
3.900389,1775669121.177309,599617942022878834,-246,-372,-945
3.905389,1775669121.177309,599617942022878834,-245,-372,-944
3.910389,1775669121.177309,599617942022878834,-242,-375,-944
3.915389,1775669121.177309,599617942022878834,-243,-376,-945
3.920389,1775669121.177309,599617942022878834,-243,-377,-947
3.925389,1775669121.177309,599617942022878834,-244,-376,-945
3.930389,1775669121.177309,599617942022878834,-244,-376,-947
3.935389,1775669121.177309,599617942022878834,-242,-374,-946
3.940389,1775669121.177309,599617942022878834,-244,-373,-946
3.945389,1775669121.177309,599617942022878834,-242,-375,-947
3.950389,1775669121.177309,599617942022878834,-243,-374,-946
3.955389,1775669121.177309,599617942022878834,-244,-375,-947
3.960389,1775669121.177309,599617942022878834,-248,-376,-944
3.965389,1775669121.177309,599617942022878834,-245,-373,-944
3.970389,1775669121.177309,599617942022878834,-244,-375,-943
3.975389,1775669121.177309,599617942022878834,-245,-375,-946
3.980389,1775669121.177309,599617942022878834,-247,-375,-944
3.985389,1775669121.177309,599617942022878834,-246,-374,-947
3.990389,1775669121.177309,599617942022878834,-249,-374,-946
3.995389,1775669121.177309,599617942022878834,-248,-375,-946
4.000389,1775669121.177309,599617942022878834,-246,-377,-947
4.005389,1775669121.177309,599617942022878834,-249,-377,-945
4.010389,1775669121.177309,599617942022878834,-246,-376,-946
4.015389,1775669121.177309,599617942022878834,-246,-378,-945
4.020389,1775669121.177309,599617942022878834,-246,-377,-945
4.025389,1775669121.177309,599617942022878834,-244,-376,-945
4.030389,1775669121.177309,599617942022878834,-243,-377,-945
4.035389,1775669121.177309,599617942022878834,-244,-375,-946
4.040389,1775669121.177309,599617942022878834,-247,-375,-947
4.045389,1775669121.177309,599617942022878834,-247,-371,-946
4.050389,1775669121.177309,599617942022878834,-246,-372,-946
4.051448,1775669121.358687,599617942198937192,-244,-369,-945
4.056448,1775669121.358687,599617942198937192,-244,-373,-946
4.061448,1775669121.358687,599617942198937192,-244,-371,-943
4.066448,1775669121.358687,599617942198937192,-246,-373,-942
4.071448,1775669121.358687,599617942198937192,-248,-375,-943
4.076448,1775669121.358687,599617942198937192,-248,-374,-943
4.081448,1775669121.358687,599617942198937192,-244,-375,-942
4.086448,1775669121.358687,599617942198937192,-246,-373,-944
4.091448,1775669121.358687,599617942198937192,-246,-377,-942
4.096448,1775669121.358687,599617942198937192,-248,-377,-943
4.101448,1775669121.358687,599617942198937192,-244,-377,-945
4.106448,1775669121.358687,599617942198937192,-246,-374,-946
4.111448,1775669121.358687,599617942198937192,-248,-374,-947
4.116448,1775669121.358687,599617942198937192,-248,-370,-948
4.121448,1775669121.358687,599617942198937192,-246,-367,-948
4.126448,1775669121.358687,599617942198937192,-244,-368,-945
4.131448,1775669121.358687,599617942198937192,-247,-367,-946
4.136448,1775669121.358687,599617942198937192,-245,-370,-945
4.141448,1775669121.358687,599617942198937192,-244,-372,-944
4.146448,1775669121.358687,599617942198937192,-240,-371,-945
4.151448,1775669121.358687,599617942198937192,-240,-370,-943
4.156448,1775669121.358687,599617942198937192,-244,-370,-946
4.161448,1775669121.358687,599617942198937192,-247,-373,-946
4.166448,1775669121.358687,599617942198937192,-247,-373,-944
4.171448,1775669121.358687,599617942198937192,-247,-374,-946
4.176448,1775669121.358687,599617942198937192,-251,-372,-944
4.181448,1775669121.358687,599617942198937192,-243,-377,-945
4.186448,1775669121.358687,599617942198937192,-241,-379,-951
4.191448,1775669121.358687,599617942198937192,-244,-377,-946
4.196448,1775669121.358687,599617942198937192,-246,-375,-949
4.201448,1775669121.358687,599617942198937192,-247,-370,-948
4.206448,1775669121.358687,599617942198937192,-244,-371,-948
4.211448,1775669121.358687,599617942198937192,-244,-371,-946
4.216448,1775669121.358687,599617942198937192,-246,-369,-948
4.221448,1775669121.358687,599617942198937192,-245,-369,-945
4.226448,1775669121.358687,599617942198937192,-244,-373,-946
4.227598,1775669121.492825,599617942375087082,-244,-373,-942
4.232598,1775669121.492825,599617942375087082,-243,-372,-946
4.237598,1775669121.492825,599617942375087082,-244,-370,-944
4.242598,1775669121.492825,599617942375087082,-245,-372,-945
4.247598,1775669121.492825,599617942375087082,-247,-371,-945
4.252598,1775669121.492825,599617942375087082,-244,-371,-948
4.257598,1775669121.492825,599617942375087082,-248,-372,-949
4.262598,1775669121.492825,599617942375087082,-249,-372,-951
4.267598,1775669121.492825,599617942375087082,-247,-367,-947
4.272598,1775669121.492825,599617942375087082,-242,-371,-947
4.277598,1775669121.492825,599617942375087082,-243,-374,-946
4.282598,1775669121.492825,599617942375087082,-243,-370,-947
4.287598,1775669121.492825,599617942375087082,-245,-372,-943
4.292598,1775669121.492825,599617942375087082,-245,-372,-946
4.297598,1775669121.492825,599617942375087082,-248,-369,-945
4.302598,1775669121.492825,599617942375087082,-251,-371,-947
4.307598,1775669121.492825,599617942375087082,-252,-368,-948
4.312598,1775669121.492825,599617942375087082,-249,-370,-949
4.317598,1775669121.492825,599617942375087082,-245,-371,-949
4.322598,1775669121.492825,599617942375087082,-245,-376,-947
4.327597,1775669121.492825,599617942375087082,-246,-372,-947
4.332597,1775669121.492825,599617942375087082,-245,-372,-949
4.337597,1775669121.492825,599617942375087082,-248,-371,-946
4.342598,1775669121.492825,599617942375087082,-244,-369,-948
4.347598,1775669121.492825,599617942375087082,-246,-367,-947
4.352598,1775669121.492825,599617942375087082,-242,-362,-948
4.357598,1775669121.492825,599617942375087082,-242,-365,-947
4.362598,1775669121.492825,599617942375087082,-244,-365,-946
4.367598,1775669121.492825,599617942375087082,-240,-367,-946
4.372598,1775669121.492825,599617942375087082,-245,-368,-946
4.377598,1775669121.492825,599617942375087082,-242,-371,-947
4.382598,1775669121.492825,599617942375087082,-239,-373,-949
4.387598,1775669121.492825,599617942375087082,-242,-372,-947
4.392598,1775669121.492825,599617942375087082,-242,-371,-948
4.397598,1775669121.492825,599617942375087082,-241,-371,-945
4.402598,1775669121.492825,599617942375087082,-247,-372,-945
4.403717,1775669121.673805,599617942551206450,-248,-373,-944
4.408717,1775669121.673805,599617942551206450,-247,-375,-944
4.413717,1775669121.673805,599617942551206450,-244,-374,-943
4.418717,1775669121.673805,599617942551206450,-251,-371,-947
4.423717,1775669121.673805,599617942551206450,-253,-371,-948
4.428717,1775669121.673805,599617942551206450,-251,-372,-946
4.433717,1775669121.673805,599617942551206450,-252,-371,-948
4.438717,1775669121.673805,599617942551206450,-251,-370,-948
4.443717,1775669121.673805,599617942551206450,-247,-373,-949
4.448717,1775669121.673805,599617942551206450,-245,-373,-948
4.453717,1775669121.673805,599617942551206450,-246,-374,-948
4.458717,1775669121.673805,599617942551206450,-246,-372,-946
4.463717,1775669121.673805,599617942551206450,-243,-371,-946
4.468717,1775669121.673805,599617942551206450,-242,-370,-945
4.473717,1775669121.673805,599617942551206450,-243,-366,-943
4.478717,1775669121.673805,599617942551206450,-244,-367,-945
4.483717,1775669121.673805,599617942551206450,-240,-369,-944
4.488717,1775669121.673805,599617942551206450,-239,-368,-942
4.493717,1775669121.673805,599617942551206450,-240,-373,-943
4.498717,1775669121.673805,599617942551206450,-242,-369,-941
4.503717,1775669121.673805,599617942551206450,-251,-361,-943
4.508717,1775669121.673805,599617942551206450,-248,-367,-948
4.513717,1775669121.673805,599617942551206450,-241,-361,-948
4.518717,1775669121.673805,599617942551206450,-249,-367,-951
4.523717,1775669121.673805,599617942551206450,-248,-357,-948
4.528717,1775669121.673805,599617942551206450,-249,-358,-949
4.533717,1775669121.673805,599617942551206450,-245,-368,-946
4.538717,1775669121.673805,599617942551206450,-252,-374,-944
4.543717,1775669121.673805,599617942551206450,-246,-375,-944
4.548717,1775669121.673805,599617942551206450,-246,-375,-947
4.553717,1775669121.673805,599617942551206450,-242,-375,-948
4.558717,1775669121.673805,599617942551206450,-244,-374,-951
4.563717,1775669121.673805,599617942551206450,-244,-375,-950
4.568717,1775669121.673805,599617942551206450,-250,-374,-951
4.573717,1775669121.673805,599617942551206450,-253,-375,-947
4.578717,1775669121.673805,599617942551206450,-252,-373,-947
4.579806,1775669121.852684,599617942727295336,-244,-376,-950
4.584806,1775669121.852684,599617942727295336,-249,-377,-946
4.589806,1775669121.852684,599617942727295336,-248,-375,-946
4.594806,1775669121.852684,599617942727295336,-249,-371,-946
4.599806,1775669121.852684,599617942727295336,-247,-367,-945
4.604806,1775669121.852684,599617942727295336,-245,-367,-947
4.609806,1775669121.852684,599617942727295336,-245,-366,-947
4.614806,1775669121.852684,599617942727295336,-246,-368,-948
4.619806,1775669121.852684,599617942727295336,-248,-369,-948
4.624806,1775669121.852684,599617942727295336,-251,-370,-948
4.629806,1775669121.852684,599617942727295336,-249,-371,-946
4.634806,1775669121.852684,599617942727295336,-249,-371,-947
4.639806,1775669121.852684,599617942727295336,-248,-373,-949
4.644806,1775669121.852684,599617942727295336,-250,-373,-945
4.649806,1775669121.852684,599617942727295336,-249,-371,-944
4.654806,1775669121.852684,599617942727295336,-248,-372,-944
4.659806,1775669121.852684,599617942727295336,-245,-374,-946
4.664806,1775669121.852684,599617942727295336,-247,-371,-945
4.669806,1775669121.852684,599617942727295336,-253,-363,-938
4.674806,1775669121.852684,599617942727295336,-249,-364,-947
4.679806,1775669121.852684,599617942727295336,-238,-377,-947
4.684806,1775669121.852684,599617942727295336,-239,-372,-947
4.689806,1775669121.852684,599617942727295336,-238,-371,-946
4.694806,1775669121.852684,599617942727295336,-242,-372,-947
4.699806,1775669121.852684,599617942727295336,-243,-369,-946
4.704806,1775669121.852684,599617942727295336,-243,-368,-945
4.709806,1775669121.852684,599617942727295336,-240,-367,-946
4.714806,1775669121.852684,599617942727295336,-245,-368,-947
4.719806,1775669121.852684,599617942727295336,-245,-369,-946
4.724806,1775669121.852684,599617942727295336,-245,-375,-948
4.729806,1775669121.852684,599617942727295336,-251,-375,-944
4.734806,1775669121.852684,599617942727295336,-251,-375,-945
4.739806,1775669121.852684,599617942727295336,-237,-352,-951
4.744806,1775669121.852684,599617942727295336,-249,-354,-951
4.749806,1775669121.852684,599617942727295336,-246,-370,-950
4.754806,1775669121.852684,599617942727295336,-239,-370,-950
4.755925,1775669122.078399,599617942903414688,-245,-371,-951
4.760925,1775669122.078399,599617942903414688,-248,-366,-946
4.765925,1775669122.078399,599617942903414688,-249,-370,-944
4.770925,1775669122.078399,599617942903414688,-248,-368,-945
4.775925,1775669122.078399,599617942903414688,-246,-370,-945
4.780925,1775669122.078399,599617942903414688,-247,-368,-945
4.785925,1775669122.078399,599617942903414688,-248,-369,-944
4.790925,1775669122.078399,599617942903414688,-249,-371,-945
4.795925,1775669122.078399,599617942903414688,-249,-372,-942
4.800925,1775669122.078399,599617942903414688,-251,-370,-947
4.805925,1775669122.078399,599617942903414688,-248,-370,-947
4.810925,1775669122.078399,599617942903414688,-248,-372,-944
4.815925,1775669122.078399,599617942903414688,-253,-373,-946
4.820925,1775669122.078399,599617942903414688,-247,-376,-948
4.825925,1775669122.078399,599617942903414688,-242,-376,-946
4.830925,1775669122.078399,599617942903414688,-245,-376,-945
4.835925,1775669122.078399,599617942903414688,-249,-373,-943
4.840925,1775669122.078399,599617942903414688,-247,-370,-941
4.845925,1775669122.078399,599617942903414688,-249,-371,-945
4.850925,1775669122.078399,599617942903414688,-246,-365,-947
4.855925,1775669122.078399,599617942903414688,-247,-368,-946
4.860925,1775669122.078399,599617942903414688,-249,-364,-946
4.865925,1775669122.078399,599617942903414688,-249,-367,-946
4.870925,1775669122.078399,599617942903414688,-250,-366,-946
4.875925,1775669122.078399,599617942903414688,-251,-368,-948
4.880925,1775669122.078399,599617942903414688,-252,-366,-947
4.885925,1775669122.078399,599617942903414688,-249,-367,-947
4.890925,1775669122.078399,599617942903414688,-246,-369,-948
4.895925,1775669122.078399,599617942903414688,-245,-368,-947
4.900925,1775669122.078399,599617942903414688,-245,-373,-949
4.905925,1775669122.078399,599617942903414688,-250,-369,-946
4.910925,1775669122.078399,599617942903414688,-244,-369,-944
4.915925,1775669122.078399,599617942903414688,-246,-369,-945
4.920925,1775669122.078399,599617942903414688,-244,-369,-946
4.925925,1775669122.078399,599617942903414688,-250,-374,-942
4.930925,1775669122.078399,599617942903414688,-246,-375,-942
4.932106,1775669122.213623,599617943079595122,-248,-374,-945
4.937106,1775669122.213623,599617943079595122,-248,-372,-946
4.942106,1775669122.213623,599617943079595122,-247,-372,-948
4.947106,1775669122.213623,599617943079595122,-246,-373,-946
4.952106,1775669122.213623,599617943079595122,-246,-374,-945
4.957106,1775669122.213623,599617943079595122,-247,-370,-947
4.962106,1775669122.213623,599617943079595122,-249,-367,-946
4.967106,1775669122.213623,599617943079595122,-250,-365,-945
4.972106,1775669122.213623,599617943079595122,-249,-369,-947
4.977105,1775669122.213623,599617943079595122,-248,-371,-945
4.982105,1775669122.213623,599617943079595122,-249,-372,-945
4.987105,1775669122.213623,599617943079595122,-250,-374,-944
4.992105,1775669122.213623,599617943079595122,-248,-378,-943
4.997105,1775669122.213623,599617943079595122,-250,-378,-943
5.002105,1775669122.213623,599617943079595122,-246,-375,-948
5.007105,1775669122.213623,599617943079595122,-245,-373,-949
5.012105,1775669122.213623,599617943079595122,-245,-370,-949
5.017105,1775669122.213623,599617943079595122,-243,-368,-947
5.022105,1775669122.213623,599617943079595122,-247,-367,-944
5.027105,1775669122.213623,599617943079595122,-246,-364,-945
5.032105,1775669122.213623,599617943079595122,-249,-370,-945
5.037105,1775669122.213623,599617943079595122,-249,-371,-946
5.042105,1775669122.213623,599617943079595122,-244,-374,-946
5.047106,1775669122.213623,599617943079595122,-243,-374,-947
5.052106,1775669122.213623,599617943079595122,-250,-372,-946
5.057106,1775669122.213623,599617943079595122,-255,-367,-945
5.062106,1775669122.213623,599617943079595122,-248,-369,-948
5.067106,1775669122.213623,599617943079595122,-248,-368,-948
5.072106,1775669122.213623,599617943079595122,-246,-365,-948
5.077106,1775669122.213623,599617943079595122,-249,-362,-948
5.082106,1775669122.213623,599617943079595122,-244,-363,-948
5.087106,1775669122.213623,599617943079595122,-241,-360,-948
5.092106,1775669122.213623,599617943079595122,-242,-364,-946
5.097106,1775669122.213623,599617943079595122,-247,-366,-948
5.102105,1775669122.213623,599617943079595122,-249,-364,-944
5.107105,1775669122.213623,599617943079595122,-251,-365,-947
5.108256,1775669122.394566,599617943255745008,-246,-370,-949
5.113256,1775669122.394566,599617943255745008,-250,-366,-948
5.118255,1775669122.394566,599617943255745008,-251,-368,-949
5.123255,1775669122.394566,599617943255745008,-254,-368,-949
5.128255,1775669122.394566,599617943255745008,-245,-372,-945
5.133255,1775669122.394566,599617943255745008,-245,-372,-949
5.138255,1775669122.394566,599617943255745008,-247,-370,-949
5.143255,1775669122.394566,599617943255745008,-245,-370,-947
5.148255,1775669122.394566,599617943255745008,-246,-375,-948
5.153255,1775669122.394566,599617943255745008,-246,-368,-947
5.158255,1775669122.394566,599617943255745008,-246,-370,-947
5.163255,1775669122.394566,599617943255745008,-251,-369,-947
5.168255,1775669122.394566,599617943255745008,-250,-367,-945
5.173255,1775669122.394566,599617943255745008,-249,-371,-946
5.178255,1775669122.394566,599617943255745008,-245,-368,-947
5.183255,1775669122.394566,599617943255745008,-249,-367,-948
5.188255,1775669122.394566,599617943255745008,-248,-365,-947
5.193255,1775669122.394566,599617943255745008,-247,-368,-948
5.198255,1775669122.394566,599617943255745008,-241,-370,-949
5.203255,1775669122.394566,599617943255745008,-244,-371,-948
5.208255,1775669122.394566,599617943255745008,-244,-372,-947
5.213255,1775669122.394566,599617943255745008,-245,-370,-948
5.218255,1775669122.394566,599617943255745008,-245,-372,-948
5.223256,1775669122.394566,599617943255745008,-245,-371,-948
5.228256,1775669122.394566,599617943255745008,-245,-370,-948
5.233256,1775669122.394566,599617943255745008,-246,-370,-949
5.238256,1775669122.394566,599617943255745008,-247,-372,-948
5.243255,1775669122.394566,599617943255745008,-250,-370,-947
5.248255,1775669122.394566,599617943255745008,-249,-366,-945
5.253255,1775669122.394566,599617943255745008,-250,-368,-946
5.258255,1775669122.394566,599617943255745008,-248,-368,-945
5.263255,1775669122.394566,599617943255745008,-249,-365,-946
5.268255,1775669122.394566,599617943255745008,-246,-369,-943
5.273255,1775669122.394566,599617943255745008,-244,-365,-948
5.278255,1775669122.394566,599617943255745008,-245,-365,-947
5.283255,1775669122.394566,599617943255745008,-245,-365,-947
5.284436,1775669122.573067,599617943431925432,-248,-361,-946
5.289436,1775669122.573067,599617943431925432,-245,-362,-946
5.294436,1775669122.573067,599617943431925432,-245,-365,-944
5.299436,1775669122.573067,599617943431925432,-248,-374,-945
5.304436,1775669122.573067,599617943431925432,-252,-371,-944
5.309436,1775669122.573067,599617943431925432,-251,-371,-944
5.314436,1775669122.573067,599617943431925432,-254,-367,-948
5.319436,1775669122.573067,599617943431925432,-250,-370,-947
5.324436,1775669122.573067,599617943431925432,-244,-368,-947
5.329436,1775669122.573067,599617943431925432,-241,-370,-947
5.334436,1775669122.573067,599617943431925432,-239,-372,-947
5.339436,1775669122.573067,599617943431925432,-240,-374,-946
5.344436,1775669122.573067,599617943431925432,-246,-374,-946
5.349436,1775669122.573067,599617943431925432,-244,-371,-943
5.354436,1775669122.573067,599617943431925432,-240,-372,-945
5.359436,1775669122.573067,599617943431925432,-241,-370,-945
5.364436,1775669122.573067,599617943431925432,-242,-372,-948
5.369436,1775669122.573067,599617943431925432,-244,-371,-944
5.374436,1775669122.573067,599617943431925432,-244,-373,-943
5.379436,1775669122.573067,599617943431925432,-246,-374,-944
5.384436,1775669122.573067,599617943431925432,-247,-373,-942
5.389436,1775669122.573067,599617943431925432,-249,-373,-945
5.394436,1775669122.573067,599617943431925432,-245,-372,-944
5.399436,1775669122.573067,599617943431925432,-245,-366,-945
5.404436,1775669122.573067,599617943431925432,-244,-371,-946
5.409436,1775669122.573067,599617943431925432,-246,-368,-943
5.414436,1775669122.573067,599617943431925432,-248,-354,-948
5.419436,1775669122.573067,599617943431925432,-247,-353,-951
5.424436,1775669122.573067,599617943431925432,-237,-357,-950
5.429436,1775669122.573067,599617943431925432,-240,-363,-952
5.434436,1775669122.573067,599617943431925432,-243,-362,-951
5.439436,1775669122.573067,599617943431925432,-246,-364,-949
5.444436,1775669122.573067,599617943431925432,-244,-375,-946
5.449436,1775669122.573067,599617943431925432,-251,-381,-942
5.454436,1775669122.573067,599617943431925432,-250,-381,-943
5.459436,1775669122.573067,599617943431925432,-243,-379,-945
5.460677,1775669122.752455,599617943608166866,-239,-371,-952
5.465677,1775669122.752455,599617943608166866,-237,-373,-949
5.470677,1775669122.752455,599617943608166866,-238,-366,-954
5.475677,1775669122.752455,599617943608166866,-243,-366,-954
5.480677,1775669122.752455,599617943608166866,-249,-370,-948
5.485677,1775669122.752455,599617943608166866,-251,-372,-945
5.490677,1775669122.752455,599617943608166866,-254,-371,-943
5.495677,1775669122.752455,599617943608166866,-252,-371,-945
5.500677,1775669122.752455,599617943608166866,-251,-369,-946
5.505677,1775669122.752455,599617943608166866,-250,-367,-946
5.510677,1775669122.752455,599617943608166866,-250,-367,-946
5.515677,1775669122.752455,599617943608166866,-248,-368,-948
5.520677,1775669122.752455,599617943608166866,-246,-368,-949
5.525677,1775669122.752455,599617943608166866,-243,-365,-950
5.530677,1775669122.752455,599617943608166866,-246,-373,-950
5.535677,1775669122.752455,599617943608166866,-248,-372,-947
5.540677,1775669122.752455,599617943608166866,-250,-371,-947
5.545677,1775669122.752455,599617943608166866,-248,-371,-948
5.550677,1775669122.752455,599617943608166866,-248,-371,-951
5.555677,1775669122.752455,599617943608166866,-245,-374,-949
5.560677,1775669122.752455,599617943608166866,-244,-374,-949
5.565677,1775669122.752455,599617943608166866,-246,-372,-948
5.570677,1775669122.752455,599617943608166866,-248,-370,-948
5.575677,1775669122.752455,599617943608166866,-247,-371,-946
5.580677,1775669122.752455,599617943608166866,-245,-371,-944
5.585677,1775669122.752455,599617943608166866,-243,-370,-946
5.590677,1775669122.752455,599617943608166866,-240,-370,-945
5.595677,1775669122.752455,599617943608166866,-242,-364,-946
5.600677,1775669122.752455,599617943608166866,-240,-365,-942
5.605677,1775669122.752455,599617943608166866,-245,-365,-943
5.610677,1775669122.752455,599617943608166866,-242,-366,-945
5.615677,1775669122.752455,599617943608166866,-246,-369,-943
5.620677,1775669122.752455,599617943608166866,-245,-371,-945
5.625677,1775669122.752455,599617943608166866,-245,-368,-943
5.630677,1775669122.752455,599617943608166866,-244,-366,-945
5.635677,1775669122.752455,599617943608166866,-245,-370,-945
5.636949,1775669122.978192,599617943784438844,-247,-371,-944
5.641949,1775669122.978192,599617943784438844,-250,-379,-946
5.646949,1775669122.978192,599617943784438844,-229,-366,-946
5.651949,1775669122.978192,599617943784438844,-244,-358,-952
5.656949,1775669122.978192,599617943784438844,-247,-367,-946
5.661949,1775669122.978192,599617943784438844,-241,-376,-943
5.666949,1775669122.978192,599617943784438844,-246,-379,-941
5.671949,1775669122.978192,599617943784438844,-246,-378,-942
5.676949,1775669122.978192,599617943784438844,-248,-373,-943
5.681949,1775669122.978192,599617943784438844,-249,-371,-946
5.686949,1775669122.978192,599617943784438844,-246,-372,-948
5.691949,1775669122.978192,599617943784438844,-244,-370,-947
5.696949,1775669122.978192,599617943784438844,-240,-369,-946
5.701949,1775669122.978192,599617943784438844,-245,-368,-944
5.706949,1775669122.978192,599617943784438844,-244,-370,-946
5.711949,1775669122.978192,599617943784438844,-243,-369,-944
5.716949,1775669122.978192,599617943784438844,-240,-370,-947
5.721949,1775669122.978192,599617943784438844,-241,-370,-945
5.726949,1775669122.978192,599617943784438844,-241,-368,-945
5.731949,1775669122.978192,599617943784438844,-240,-365,-942
5.736949,1775669122.978192,599617943784438844,-243,-369,-945
5.741949,1775669122.978192,599617943784438844,-240,-369,-944
5.746949,1775669122.978192,599617943784438844,-240,-371,-942
5.751949,1775669122.978192,599617943784438844,-240,-372,-944
5.756949,1775669122.978192,599617943784438844,-240,-370,-947
5.761949,1775669122.978192,599617943784438844,-240,-368,-948
5.766949,1775669122.978192,599617943784438844,-241,-368,-951
5.771949,1775669122.978192,599617943784438844,-244,-371,-951
5.776949,1775669122.978192,599617943784438844,-241,-370,-951
5.781949,1775669122.978192,599617943784438844,-247,-369,-950
5.786949,1775669122.978192,599617943784438844,-248,-373,-950
5.791949,1775669122.978192,599617943784438844,-246,-374,-949
5.796949,1775669122.978192,599617943784438844,-249,-374,-948
5.801949,1775669122.978192,599617943784438844,-250,-377,-947
5.806949,1775669122.978192,599617943784438844,-246,-375,-946
5.811949,1775669122.978192,599617943784438844,-242,-375,-947
5.813130,1775669123.112129,599617943960619264,-243,-373,-948
5.818130,1775669123.112129,599617943960619264,-247,-374,-947
5.823130,1775669123.112129,599617943960619264,-244,-369,-948
5.828130,1775669123.112129,599617943960619264,-241,-369,-946
5.833130,1775669123.112129,599617943960619264,-241,-374,-944
5.838130,1775669123.112129,599617943960619264,-247,-374,-945
5.843130,1775669123.112129,599617943960619264,-242,-371,-944
5.848130,1775669123.112129,599617943960619264,-239,-374,-945
5.853130,1775669123.112129,599617943960619264,-236,-373,-947
5.858130,1775669123.112129,599617943960619264,-238,-377,-946
5.863130,1775669123.112129,599617943960619264,-239,-377,-946
5.868130,1775669123.112129,599617943960619264,-239,-374,-945
5.873130,1775669123.112129,599617943960619264,-246,-375,-944
5.878130,1775669123.112129,599617943960619264,-243,-374,-945
5.883130,1775669123.112129,599617943960619264,-247,-372,-945
5.888130,1775669123.112129,599617943960619264,-249,-373,-946
5.893130,1775669123.112129,599617943960619264,-243,-374,-945
5.898130,1775669123.112129,599617943960619264,-244,-374,-942
5.903130,1775669123.112129,599617943960619264,-243,-373,-943
5.908130,1775669123.112129,599617943960619264,-240,-369,-942
5.913130,1775669123.112129,599617943960619264,-242,-369,-944
5.918130,1775669123.112129,599617943960619264,-240,-368,-943
5.923130,1775669123.112129,599617943960619264,-243,-368,-944
5.928130,1775669123.112129,599617943960619264,-245,-371,-945
5.933130,1775669123.112129,599617943960619264,-246,-372,-945
5.938130,1775669123.112129,599617943960619264,-248,-374,-945
5.943130,1775669123.112129,599617943960619264,-246,-374,-947
5.948130,1775669123.112129,599617943960619264,-242,-376,-951
5.953130,1775669123.112129,599617943960619264,-237,-375,-949
5.958130,1775669123.112129,599617943960619264,-235,-374,-951
5.963130,1775669123.112129,599617943960619264,-232,-371,-947
5.968130,1775669123.112129,599617943960619264,-230,-368,-946
5.973130,1775669123.112129,599617943960619264,-232,-368,-947
5.978130,1775669123.112129,599617943960619264,-235,-370,-947
5.983130,1775669123.112129,599617943960619264,-237,-370,-946
5.988130,1775669123.112129,599617943960619264,-245,-373,-945
5.989249,1775669123.337234,599617944136738622,-248,-374,-942
5.994249,1775669123.337234,599617944136738622,-250,-372,-943
5.999249,1775669123.337234,599617944136738622,-251,-370,-947
6.004249,1775669123.337234,599617944136738622,-258,-369,-946
6.009249,1775669123.337234,599617944136738622,-256,-368,-950
6.014249,1775669123.337234,599617944136738622,-256,-367,-947
6.019249,1775669123.337234,599617944136738622,-254,-371,-949
6.024249,1775669123.337234,599617944136738622,-246,-373,-947
6.029249,1775669123.337234,599617944136738622,-240,-377,-947
6.034249,1775669123.337234,599617944136738622,-236,-378,-948
6.039249,1775669123.337234,599617944136738622,-234,-380,-945
6.044249,1775669123.337234,599617944136738622,-235,-377,-942
6.049249,1775669123.337234,599617944136738622,-232,-373,-945
6.054249,1775669123.337234,599617944136738622,-236,-369,-941
6.059249,1775669123.337234,599617944136738622,-234,-367,-947
6.064249,1775669123.337234,599617944136738622,-238,-367,-944
6.069249,1775669123.337234,599617944136738622,-245,-370,-947
6.074249,1775669123.337234,599617944136738622,-253,-371,-946
6.079249,1775669123.337234,599617944136738622,-257,-370,-947
6.084249,1775669123.337234,599617944136738622,-257,-370,-949
6.089249,1775669123.337234,599617944136738622,-257,-368,-949
6.094249,1775669123.337234,599617944136738622,-257,-370,-950
6.099249,1775669123.337234,599617944136738622,-256,-367,-951
6.104249,1775669123.337234,599617944136738622,-248,-370,-947
6.109249,1775669123.337234,599617944136738622,-242,-363,-950
6.114249,1775669123.337234,599617944136738622,-242,-353,-953
6.119249,1775669123.337234,599617944136738622,-244,-357,-951
6.124249,1775669123.337234,599617944136738622,-236,-364,-943
6.129249,1775669123.337234,599617944136738622,-238,-369,-945
6.134249,1775669123.337234,599617944136738622,-237,-370,-944
6.139249,1775669123.337234,599617944136738622,-239,-374,-939
6.144249,1775669123.337234,599617944136738622,-239,-378,-937
6.149249,1775669123.337234,599617944136738622,-251,-380,-937
6.154249,1775669123.337234,599617944136738622,-244,-379,-940
6.159249,1775669123.337234,599617944136738622,-241,-377,-944
6.164249,1775669123.337234,599617944136738622,-244,-374,-949
6.165399,1775669123.562158,599617944312888528,-244,-369,-952
6.170399,1775669123.562158,599617944312888528,-245,-363,-956
6.175399,1775669123.562158,599617944312888528,-251,-368,-954
6.180399,1775669123.562158,599617944312888528,-250,-367,-952
6.185399,1775669123.562158,599617944312888528,-245,-369,-950
6.190399,1775669123.562158,599617944312888528,-249,-372,-947
6.195399,1775669123.562158,599617944312888528,-248,-371,-946
6.200399,1775669123.562158,599617944312888528,-246,-366,-945
6.205399,1775669123.562158,599617944312888528,-243,-364,-946
6.210399,1775669123.562158,599617944312888528,-242,-370,-945
6.215399,1775669123.562158,599617944312888528,-244,-368,-945
6.220399,1775669123.562158,599617944312888528,-243,-373,-944
6.225399,1775669123.562158,599617944312888528,-244,-371,-946
6.230399,1775669123.562158,599617944312888528,-246,-371,-947
6.235399,1775669123.562158,599617944312888528,-245,-372,-946
6.240399,1775669123.562158,599617944312888528,-244,-370,-948
6.245399,1775669123.562158,599617944312888528,-244,-369,-947
6.250399,1775669123.562158,599617944312888528,-246,-371,-948
6.255399,1775669123.562158,599617944312888528,-242,-372,-943
6.260399,1775669123.562158,599617944312888528,-240,-373,-944
6.265399,1775669123.562158,599617944312888528,-240,-371,-946
6.270399,1775669123.562158,599617944312888528,-239,-372,-946
6.275399,1775669123.562158,599617944312888528,-242,-368,-945
6.280399,1775669123.562158,599617944312888528,-243,-373,-945
6.285399,1775669123.562158,599617944312888528,-242,-375,-944
6.290399,1775669123.562158,599617944312888528,-241,-374,-945
6.295399,1775669123.562158,599617944312888528,-242,-372,-946
6.300399,1775669123.562158,599617944312888528,-241,-371,-946
6.305399,1775669123.562158,599617944312888528,-244,-369,-946
6.310399,1775669123.562158,599617944312888528,-244,-370,-947
6.315399,1775669123.562158,599617944312888528,-243,-365,-947
6.320399,1775669123.562158,599617944312888528,-241,-365,-946
6.325399,1775669123.562158,599617944312888528,-239,-365,-948
6.330399,1775669123.562158,599617944312888528,-239,-364,-948
6.335399,1775669123.562158,599617944312888528,-241,-369,-947
6.340399,1775669123.562158,599617944312888528,-255,-374,-945
6.341579,1775669123.651456,599617944489068952,-235,-370,-941
6.346579,1775669123.651456,599617944489068952,-234,-358,-949
6.351579,1775669123.651456,599617944489068952,-243,-356,-949
6.356579,1775669123.651456,599617944489068952,-236,-365,-948
6.361579,1775669123.651456,599617944489068952,-246,-373,-947
6.366579,1775669123.651456,599617944489068952,-250,-370,-948
6.371579,1775669123.651456,599617944489068952,-250,-368,-949
6.376579,1775669123.651456,599617944489068952,-248,-366,-948
6.381579,1775669123.651456,599617944489068952,-250,-368,-948
6.386579,1775669123.651456,599617944489068952,-248,-372,-946
6.391579,1775669123.651456,599617944489068952,-247,-371,-947
6.396579,1775669123.651456,599617944489068952,-245,-368,-947
6.401579,1775669123.651456,599617944489068952,-243,-372,-946
6.406579,1775669123.651456,599617944489068952,-242,-374,-948
6.411579,1775669123.651456,599617944489068952,-243,-369,-948
6.416579,1775669123.651456,599617944489068952,-246,-369,-946
6.421579,1775669123.651456,599617944489068952,-247,-371,-947
6.426579,1775669123.651456,599617944489068952,-244,-375,-947
6.431579,1775669123.651456,599617944489068952,-240,-372,-945
6.436579,1775669123.651456,599617944489068952,-246,-374,-949
6.441579,1775669123.651456,599617944489068952,-246,-372,-946
6.446579,1775669123.651456,599617944489068952,-245,-375,-947
6.451579,1775669123.651456,599617944489068952,-243,-376,-948
6.456579,1775669123.651456,599617944489068952,-241,-373,-948
6.461579,1775669123.651456,599617944489068952,-241,-370,-948
6.466579,1775669123.651456,599617944489068952,-239,-371,-949
6.471579,1775669123.651456,599617944489068952,-236,-370,-949
6.476579,1775669123.651456,599617944489068952,-238,-372,-946
6.481579,1775669123.651456,599617944489068952,-239,-373,-944
6.486579,1775669123.651456,599617944489068952,-238,-373,-945
6.491579,1775669123.651456,599617944489068952,-242,-370,-949
6.496579,1775669123.651456,599617944489068952,-246,-370,-948
6.501579,1775669123.651456,599617944489068952,-243,-372,-946
6.506579,1775669123.651456,599617944489068952,-245,-373,-948
6.511579,1775669123.651456,599617944489068952,-245,-370,-947
6.516579,1775669123.651456,599617944489068952,-246,-371,-949
6.517821,1775669123.787944,599617944665310386,-242,-372,-946
6.522821,1775669123.787944,599617944665310386,-242,-374,-946
6.527821,1775669123.787944,599617944665310386,-242,-375,-946
6.532821,1775669123.787944,599617944665310386,-244,-374,-946
6.537821,1775669123.787944,599617944665310386,-245,-369,-947
6.542821,1775669123.787944,599617944665310386,-247,-371,-946
6.547821,1775669123.787944,599617944665310386,-241,-374,-945
6.552821,1775669123.787944,599617944665310386,-239,-374,-947
6.557821,1775669123.787944,599617944665310386,-240,-373,-946
6.562821,1775669123.787944,599617944665310386,-241,-373,-945
6.567821,1775669123.787944,599617944665310386,-241,-373,-944
6.572821,1775669123.787944,599617944665310386,-244,-369,-946
6.577821,1775669123.787944,599617944665310386,-245,-371,-944
6.582821,1775669123.787944,599617944665310386,-241,-370,-945
6.587821,1775669123.787944,599617944665310386,-239,-369,-945
6.592821,1775669123.787944,599617944665310386,-238,-371,-946
6.597821,1775669123.787944,599617944665310386,-239,-373,-947
6.602821,1775669123.787944,599617944665310386,-239,-374,-949
6.607821,1775669123.787944,599617944665310386,-240,-372,-948
6.612821,1775669123.787944,599617944665310386,-241,-374,-946
6.617821,1775669123.787944,599617944665310386,-242,-372,-948
6.622821,1775669123.787944,599617944665310386,-240,-371,-950
6.627821,1775669123.787944,599617944665310386,-243,-370,-947
6.632821,1775669123.787944,599617944665310386,-245,-370,-947
6.637821,1775669123.787944,599617944665310386,-242,-374,-947
6.642821,1775669123.787944,599617944665310386,-242,-374,-947
6.647821,1775669123.787944,599617944665310386,-240,-374,-947
6.652821,1775669123.787944,599617944665310386,-241,-373,-948
6.657821,1775669123.787944,599617944665310386,-243,-372,-946
6.662821,1775669123.787944,599617944665310386,-242,-374,-944
6.667821,1775669123.787944,599617944665310386,-235,-365,-946
6.672821,1775669123.787944,599617944665310386,-236,-359,-950
6.677821,1775669123.787944,599617944665310386,-236,-365,-948
6.682821,1775669123.787944,599617944665310386,-232,-370,-948
6.687821,1775669123.787944,599617944665310386,-240,-374,-945
6.692821,1775669123.787944,599617944665310386,-246,-367,-949
6.694001,1775669123.970601,599617944841490816,-241,-370,-948
6.699001,1775669123.970601,599617944841490816,-245,-381,-941
6.704001,1775669123.970601,599617944841490816,-252,-381,-943
6.709001,1775669123.970601,599617944841490816,-249,-380,-942
6.714001,1775669123.970601,599617944841490816,-242,-376,-946
6.719001,1775669123.970601,599617944841490816,-237,-374,-948
6.724001,1775669123.970601,599617944841490816,-237,-370,-953
6.729001,1775669123.970601,599617944841490816,-238,-368,-952
6.734001,1775669123.970601,599617944841490816,-240,-370,-950
6.739001,1775669123.970601,599617944841490816,-244,-370,-949
6.744001,1775669123.970601,599617944841490816,-242,-372,-948
6.749001,1775669123.970601,599617944841490816,-244,-375,-945
6.754001,1775669123.970601,599617944841490816,-248,-376,-946
6.759001,1775669123.970601,599617944841490816,-247,-376,-947
6.764001,1775669123.970601,599617944841490816,-242,-379,-946
6.769001,1775669123.970601,599617944841490816,-243,-376,-945
6.774001,1775669123.970601,599617944841490816,-246,-375,-947
6.779001,1775669123.970601,599617944841490816,-244,-373,-945
6.784001,1775669123.970601,599617944841490816,-245,-373,-945
6.789001,1775669123.970601,599617944841490816,-242,-374,-947
6.794001,1775669123.970601,599617944841490816,-244,-375,-945
6.799001,1775669123.970601,599617944841490816,-246,-376,-945
6.804001,1775669123.970601,599617944841490816,-246,-372,-947
6.809001,1775669123.970601,599617944841490816,-244,-375,-946
6.814001,1775669123.970601,599617944841490816,-248,-373,-944
6.819001,1775669123.970601,599617944841490816,-247,-372,-948
6.824001,1775669123.970601,599617944841490816,-245,-371,-947
6.829001,1775669123.970601,599617944841490816,-241,-371,-945
6.834001,1775669123.970601,599617944841490816,-240,-368,-944
6.839001,1775669123.970601,599617944841490816,-238,-370,-945
6.844001,1775669123.970601,599617944841490816,-238,-367,-946
6.849001,1775669123.970601,599617944841490816,-236,-370,-946
6.854001,1775669123.970601,599617944841490816,-240,-370,-945
6.859001,1775669123.970601,599617944841490816,-244,-372,-946
6.864001,1775669123.970601,599617944841490816,-240,-374,-947
6.869001,1775669123.970601,599617944841490816,-237,-375,-947
6.870243,1775669124.149663,599617945017732250,-239,-371,-951
6.875243,1775669124.149663,599617945017732250,-239,-373,-948
6.880243,1775669124.149663,599617945017732250,-239,-373,-947
6.885243,1775669124.149663,599617945017732250,-241,-376,-944
6.890243,1775669124.149663,599617945017732250,-253,-373,-948
6.895243,1775669124.149663,599617945017732250,-251,-376,-938
6.900243,1775669124.149663,599617945017732250,-229,-362,-950
6.905243,1775669124.149663,599617945017732250,-243,-352,-953
6.910243,1775669124.149663,599617945017732250,-237,-361,-953
6.915243,1775669124.149663,599617945017732250,-240,-375,-947
6.920243,1775669124.149663,599617945017732250,-246,-372,-947
6.925243,1775669124.149663,599617945017732250,-245,-374,-945
6.930243,1775669124.149663,599617945017732250,-245,-370,-946
6.935243,1775669124.149663,599617945017732250,-244,-368,-946
6.940243,1775669124.149663,599617945017732250,-245,-369,-946
6.945243,1775669124.149663,599617945017732250,-244,-369,-947
6.950243,1775669124.149663,599617945017732250,-242,-365,-946
6.955243,1775669124.149663,599617945017732250,-245,-370,-946
6.960243,1775669124.149663,599617945017732250,-243,-370,-946
6.965243,1775669124.149663,599617945017732250,-243,-372,-946
6.970243,1775669124.149663,599617945017732250,-246,-372,-944
6.975243,1775669124.149663,599617945017732250,-243,-376,-945
6.980243,1775669124.149663,599617945017732250,-243,-372,-943
6.985243,1775669124.149663,599617945017732250,-245,-375,-941
6.990243,1775669124.149663,599617945017732250,-244,-372,-945
6.995243,1775669124.149663,599617945017732250,-245,-373,-946
7.000243,1775669124.149663,599617945017732250,-243,-375,-948
7.005243,1775669124.149663,599617945017732250,-241,-375,-949
7.010243,1775669124.149663,599617945017732250,-242,-373,-948
7.015243,1775669124.149663,599617945017732250,-239,-375,-947
7.020243,1775669124.149663,599617945017732250,-245,-370,-948
7.025243,1775669124.149663,599617945017732250,-244,-371,-947
7.030243,1775669124.149663,599617945017732250,-245,-370,-947
7.035243,1775669124.149663,599617945017732250,-244,-370,-947
7.040243,1775669124.149663,599617945017732250,-245,-371,-946
7.045243,1775669124.149663,599617945017732250,-245,-369,-950
7.046423,1775669124.327853,599617945193912680,-245,-370,-948
7.051423,1775669124.327853,599617945193912680,-242,-374,-947
7.056423,1775669124.327853,599617945193912680,-240,-372,-946
7.061423,1775669124.327853,599617945193912680,-245,-371,-945
7.066423,1775669124.327853,599617945193912680,-246,-372,-947
7.071423,1775669124.327853,599617945193912680,-247,-372,-948
7.076423,1775669124.327853,599617945193912680,-242,-367,-948
7.081423,1775669124.327853,599617945193912680,-245,-369,-947
7.086423,1775669124.327853,599617945193912680,-246,-369,-948
7.091423,1775669124.327853,599617945193912680,-244,-371,-946
7.096423,1775669124.327853,599617945193912680,-244,-373,-945
7.101423,1775669124.327853,599617945193912680,-244,-375,-946
7.106423,1775669124.327853,599617945193912680,-242,-373,-946
7.111423,1775669124.327853,599617945193912680,-245,-370,-948
7.116423,1775669124.327853,599617945193912680,-246,-369,-947
7.121423,1775669124.327853,599617945193912680,-244,-372,-945
7.126423,1775669124.327853,599617945193912680,-244,-368,-946
7.131423,1775669124.327853,599617945193912680,-244,-369,-946
7.136423,1775669124.327853,599617945193912680,-247,-375,-945
7.141423,1775669124.327853,599617945193912680,-244,-373,-947
7.146423,1775669124.327853,599617945193912680,-244,-371,-946
7.151423,1775669124.327853,599617945193912680,-240,-372,-946
7.156423,1775669124.327853,599617945193912680,-246,-371,-948
7.161423,1775669124.327853,599617945193912680,-242,-371,-948
7.166423,1775669124.327853,599617945193912680,-243,-372,-946
7.171423,1775669124.327853,599617945193912680,-240,-371,-947
7.176423,1775669124.327853,599617945193912680,-244,-369,-947
7.181423,1775669124.327853,599617945193912680,-245,-371,-947
7.186423,1775669124.327853,599617945193912680,-249,-371,-946
7.191423,1775669124.327853,599617945193912680,-246,-374,-947
7.196423,1775669124.327853,599617945193912680,-242,-371,-947
7.201423,1775669124.327853,599617945193912680,-240,-376,-946
7.206423,1775669124.327853,599617945193912680,-242,-373,-947
7.211423,1775669124.327853,599617945193912680,-241,-372,-947
7.216423,1775669124.327853,599617945193912680,-240,-374,-947
7.221423,1775669124.327853,599617945193912680,-239,-374,-944
7.222665,1775669124.509277,599617945370154114,-242,-375,-944
7.227665,1775669124.509277,599617945370154114,-246,-376,-947
7.232665,1775669124.509277,599617945370154114,-244,-375,-950
7.237665,1775669124.509277,599617945370154114,-243,-376,-948
7.242665,1775669124.509277,599617945370154114,-241,-377,-947
7.247665,1775669124.509277,599617945370154114,-241,-375,-946
7.252665,1775669124.509277,599617945370154114,-242,-372,-949
7.257665,1775669124.509277,599617945370154114,-244,-370,-949
7.262665,1775669124.509277,599617945370154114,-238,-371,-946
7.267665,1775669124.509277,599617945370154114,-239,-372,-948
7.272665,1775669124.509277,599617945370154114,-245,-371,-948
7.277665,1775669124.509277,599617945370154114,-242,-373,-944
7.282665,1775669124.509277,599617945370154114,-240,-378,-942
7.287665,1775669124.509277,599617945370154114,-245,-381,-938
7.292665,1775669124.509277,599617945370154114,-247,-383,-941
7.297665,1775669124.509277,599617945370154114,-241,-381,-941
7.302665,1775669124.509277,599617945370154114,-240,-380,-945
7.307665,1775669124.509277,599617945370154114,-241,-374,-947
7.312665,1775669124.509277,599617945370154114,-237,-370,-953
7.317665,1775669124.509277,599617945370154114,-241,-367,-953
7.322664,1775669124.509277,599617945370154114,-246,-372,-952
7.327664,1775669124.509277,599617945370154114,-247,-374,-950
7.332664,1775669124.509277,599617945370154114,-249,-376,-948
7.337665,1775669124.509277,599617945370154114,-252,-377,-944
7.342665,1775669124.509277,599617945370154114,-248,-375,-945
7.347665,1775669124.509277,599617945370154114,-247,-375,-945
7.352665,1775669124.509277,599617945370154114,-245,-375,-945
7.357665,1775669124.509277,599617945370154114,-240,-377,-945
7.362665,1775669124.509277,599617945370154114,-237,-378,-947
7.367665,1775669124.509277,599617945370154114,-239,-379,-945
7.372665,1775669124.509277,599617945370154114,-244,-377,-944
7.377665,1775669124.509277,599617945370154114,-249,-374,-944
7.382665,1775669124.509277,599617945370154114,-245,-368,-944
7.387665,1775669124.509277,599617945370154114,-256,-363,-946
7.392665,1775669124.509277,599617945370154114,-249,-365,-944
7.397665,1775669124.509277,599617945370154114,-249,-366,-947
7.398906,1775669124.687579,599617945546395564,-249,-367,-945
7.403906,1775669124.687579,599617945546395564,-247,-369,-945
7.408906,1775669124.687579,599617945546395564,-240,-370,-946
7.413906,1775669124.687579,599617945546395564,-243,-372,-946
7.418906,1775669124.687579,599617945546395564,-244,-373,-943
7.423906,1775669124.687579,599617945546395564,-247,-375,-943
7.428906,1775669124.687579,599617945546395564,-248,-372,-943
7.433906,1775669124.687579,599617945546395564,-245,-370,-944
7.438906,1775669124.687579,599617945546395564,-243,-369,-944
7.443906,1775669124.687579,599617945546395564,-243,-369,-941
7.448906,1775669124.687579,599617945546395564,-242,-371,-941
7.453906,1775669124.687579,599617945546395564,-241,-372,-944
7.458906,1775669124.687579,599617945546395564,-238,-374,-946
7.463906,1775669124.687579,599617945546395564,-237,-378,-947
7.468906,1775669124.687579,599617945546395564,-243,-377,-946
7.473906,1775669124.687579,599617945546395564,-243,-377,-946
7.478906,1775669124.687579,599617945546395564,-250,-375,-947
7.483906,1775669124.687579,599617945546395564,-257,-376,-941
7.488906,1775669124.687579,599617945546395564,-231,-365,-947
7.493906,1775669124.687579,599617945546395564,-242,-360,-953
7.498906,1775669124.687579,599617945546395564,-245,-371,-947
7.503906,1775669124.687579,599617945546395564,-245,-372,-945
7.508906,1775669124.687579,599617945546395564,-244,-374,-946
7.513906,1775669124.687579,599617945546395564,-244,-373,-947
7.518906,1775669124.687579,599617945546395564,-247,-372,-945
7.523906,1775669124.687579,599617945546395564,-247,-378,-944
7.528906,1775669124.687579,599617945546395564,-247,-376,-946
7.533906,1775669124.687579,599617945546395564,-250,-376,-945
7.538906,1775669124.687579,599617945546395564,-248,-375,-948
7.543906,1775669124.687579,599617945546395564,-245,-375,-945
7.548906,1775669124.687579,599617945546395564,-246,-374,-945
7.553906,1775669124.687579,599617945546395564,-242,-373,-945
7.558906,1775669124.687579,599617945546395564,-241,-373,-941
7.563906,1775669124.687579,599617945546395564,-239,-376,-943
7.568906,1775669124.687579,599617945546395564,-240,-372,-942
7.573906,1775669124.687579,599617945546395564,-240,-373,-942
7.575086,1775669124.867746,599617945722575994,-242,-370,-940
7.580086,1775669124.867746,599617945722575994,-243,-371,-943
7.585086,1775669124.867746,599617945722575994,-243,-373,-942
7.590086,1775669124.867746,599617945722575994,-243,-372,-945
7.595086,1775669124.867746,599617945722575994,-242,-373,-946
7.600086,1775669124.867746,599617945722575994,-241,-376,-946
7.605086,1775669124.867746,599617945722575994,-240,-375,-945
7.610086,1775669124.867746,599617945722575994,-242,-370,-948
7.615086,1775669124.867746,599617945722575994,-241,-369,-950
7.620086,1775669124.867746,599617945722575994,-242,-370,-947
7.625086,1775669124.867746,599617945722575994,-246,-373,-945
7.630086,1775669124.867746,599617945722575994,-249,-373,-948
7.635086,1775669124.867746,599617945722575994,-249,-375,-948
7.640086,1775669124.867746,599617945722575994,-245,-374,-948
7.645086,1775669124.867746,599617945722575994,-243,-377,-947
7.650086,1775669124.867746,599617945722575994,-244,-378,-947
7.655086,1775669124.867746,599617945722575994,-242,-377,-946
7.660086,1775669124.867746,599617945722575994,-245,-376,-946
7.665086,1775669124.867746,599617945722575994,-242,-375,-947
7.670086,1775669124.867746,599617945722575994,-243,-377,-948
7.675086,1775669124.867746,599617945722575994,-241,-375,-947
7.680086,1775669124.867746,599617945722575994,-241,-373,-948
7.685086,1775669124.867746,599617945722575994,-247,-374,-947
7.690086,1775669124.867746,599617945722575994,-248,-369,-946
7.695086,1775669124.867746,599617945722575994,-247,-368,-945
7.700086,1775669124.867746,599617945722575994,-248,-367,-948
7.705086,1775669124.867746,599617945722575994,-245,-369,-945
7.710086,1775669124.867746,599617945722575994,-245,-372,-946
7.715086,1775669124.867746,599617945722575994,-244,-369,-948
7.720086,1775669124.867746,599617945722575994,-240,-370,-945
7.725086,1775669124.867746,599617945722575994,-240,-374,-947
7.730086,1775669124.867746,599617945722575994,-240,-376,-945
7.735086,1775669124.867746,599617945722575994,-240,-375,-945
7.740086,1775669124.867746,599617945722575994,-243,-376,-944
7.745086,1775669124.867746,599617945722575994,-243,-372,-946
7.750086,1775669124.867746,599617945722575994,-249,-372,-945
7.751328,1775669125.048900,599617945898817428,-246,-369,-943
7.756328,1775669125.048900,599617945898817428,-249,-368,-948
7.761328,1775669125.048900,599617945898817428,-248,-369,-949
7.766328,1775669125.048900,599617945898817428,-246,-372,-947
7.771328,1775669125.048900,599617945898817428,-245,-372,-948
7.776328,1775669125.048900,599617945898817428,-245,-370,-949
7.781328,1775669125.048900,599617945898817428,-241,-371,-945
7.786328,1775669125.048900,599617945898817428,-243,-375,-947
7.791328,1775669125.048900,599617945898817428,-244,-374,-948
7.796328,1775669125.048900,599617945898817428,-239,-373,-948
7.801328,1775669125.048900,599617945898817428,-241,-372,-947
7.806328,1775669125.048900,599617945898817428,-243,-370,-946
7.811328,1775669125.048900,599617945898817428,-243,-368,-944
7.816328,1775669125.048900,599617945898817428,-245,-368,-946
7.821328,1775669125.048900,599617945898817428,-244,-369,-946
7.826328,1775669125.048900,599617945898817428,-244,-370,-947
7.831328,1775669125.048900,599617945898817428,-243,-369,-945
7.836328,1775669125.048900,599617945898817428,-244,-369,-947
7.841328,1775669125.048900,599617945898817428,-244,-370,-945
7.846328,1775669125.048900,599617945898817428,-243,-368,-944
7.851328,1775669125.048900,599617945898817428,-243,-370,-946
7.856328,1775669125.048900,599617945898817428,-241,-368,-948
7.861328,1775669125.048900,599617945898817428,-242,-371,-946
7.866328,1775669125.048900,599617945898817428,-245,-371,-945
7.871328,1775669125.048900,599617945898817428,-245,-368,-946
7.876328,1775669125.048900,599617945898817428,-243,-370,-946
7.881328,1775669125.048900,599617945898817428,-241,-372,-947
7.886328,1775669125.048900,599617945898817428,-247,-370,-946
7.891328,1775669125.048900,599617945898817428,-246,-368,-948
7.896328,1775669125.048900,599617945898817428,-246,-368,-950
7.901328,1775669125.048900,599617945898817428,-245,-370,-948
7.906328,1775669125.048900,599617945898817428,-247,-368,-947
7.911328,1775669125.048900,599617945898817428,-243,-367,-946
7.916328,1775669125.048900,599617945898817428,-247,-368,-948
7.921328,1775669125.048900,599617945898817428,-247,-368,-949
7.926328,1775669125.048900,599617945898817428,-246,-369,-946
7.927600,1775669125.227860,599617946075089406,-241,-371,-944
7.932600,1775669125.227860,599617946075089406,-244,-373,-948
7.937600,1775669125.227860,599617946075089406,-245,-374,-947
7.942600,1775669125.227860,599617946075089406,-245,-372,-946
7.947600,1775669125.227860,599617946075089406,-243,-375,-949
7.952600,1775669125.227860,599617946075089406,-246,-372,-945
7.957600,1775669125.227860,599617946075089406,-246,-368,-947
7.962600,1775669125.227860,599617946075089406,-241,-372,-946
7.967600,1775669125.227860,599617946075089406,-243,-365,-947
7.972600,1775669125.227860,599617946075089406,-239,-363,-947
7.977600,1775669125.227860,599617946075089406,-242,-365,-946
7.982600,1775669125.227860,599617946075089406,-246,-368,-947
7.987600,1775669125.227860,599617946075089406,-245,-368,-947
7.992600,1775669125.227860,599617946075089406,-245,-366,-948
7.997600,1775669125.227860,599617946075089406,-250,-368,-947
8.002600,1775669125.227860,599617946075089406,-250,-368,-946
8.007600,1775669125.227860,599617946075089406,-247,-368,-947
8.012600,1775669125.227860,599617946075089406,-246,-372,-946
8.017600,1775669125.227860,599617946075089406,-246,-365,-948
8.022600,1775669125.227860,599617946075089406,-243,-369,-948
8.027600,1775669125.227860,599617946075089406,-243,-369,-946
8.032600,1775669125.227860,599617946075089406,-245,-364,-948
8.037600,1775669125.227860,599617946075089406,-247,-361,-949
8.042600,1775669125.227860,599617946075089406,-242,-362,-947
8.047600,1775669125.227860,599617946075089406,-239,-366,-947
8.052600,1775669125.227860,599617946075089406,-241,-366,-945
8.057600,1775669125.227860,599617946075089406,-243,-373,-943
8.062600,1775669125.227860,599617946075089406,-241,-370,-945
8.067600,1775669125.227860,599617946075089406,-241,-372,-946
8.072600,1775669125.227860,599617946075089406,-244,-374,-946
8.077600,1775669125.227860,599617946075089406,-245,-369,-948
8.082600,1775669125.227860,599617946075089406,-248,-368,-948
8.087600,1775669125.227860,599617946075089406,-247,-370,-945
8.092600,1775669125.227860,599617946075089406,-244,-371,-948
8.097600,1775669125.227860,599617946075089406,-244,-373,-948
8.102600,1775669125.227860,599617946075089406,-246,-374,-949
8.103841,1775669125.408880,599617946251330846,-241,-369,-945
8.108841,1775669125.408880,599617946251330846,-246,-372,-949
8.113841,1775669125.408880,599617946251330846,-245,-368,-949
8.118841,1775669125.408880,599617946251330846,-246,-370,-949
8.123841,1775669125.408880,599617946251330846,-248,-371,-946
8.128841,1775669125.408880,599617946251330846,-247,-368,-947
8.133841,1775669125.408880,599617946251330846,-243,-368,-947
8.138841,1775669125.408880,599617946251330846,-241,-373,-948
8.143841,1775669125.408880,599617946251330846,-240,-372,-946
8.148841,1775669125.408880,599617946251330846,-242,-370,-945
8.153841,1775669125.408880,599617946251330846,-245,-370,-941
8.158841,1775669125.408880,599617946251330846,-246,-367,-941
8.163841,1775669125.408880,599617946251330846,-247,-362,-942
8.168841,1775669125.408880,599617946251330846,-244,-358,-946
8.173841,1775669125.408880,599617946251330846,-240,-362,-948
8.178841,1775669125.408880,599617946251330846,-240,-353,-958
8.183841,1775669125.408880,599617946251330846,-241,-363,-954
8.188841,1775669125.408880,599617946251330846,-245,-364,-951
8.193841,1775669125.408880,599617946251330846,-248,-373,-945
8.198841,1775669125.408880,599617946251330846,-248,-375,-942
8.203841,1775669125.408880,599617946251330846,-243,-372,-945
8.208841,1775669125.408880,599617946251330846,-242,-371,-946
8.213841,1775669125.408880,599617946251330846,-239,-369,-949
8.218841,1775669125.408880,599617946251330846,-240,-366,-952
8.223841,1775669125.408880,599617946251330846,-242,-370,-950
8.228841,1775669125.408880,599617946251330846,-250,-371,-948
8.233841,1775669125.408880,599617946251330846,-253,-372,-947
8.238841,1775669125.408880,599617946251330846,-248,-375,-948
8.243841,1775669125.408880,599617946251330846,-243,-373,-946
8.248841,1775669125.408880,599617946251330846,-244,-371,-947
8.253841,1775669125.408880,599617946251330846,-244,-371,-945
8.258841,1775669125.408880,599617946251330846,-247,-373,-946
8.263841,1775669125.408880,599617946251330846,-243,-373,-945
8.268841,1775669125.408880,599617946251330846,-247,-370,-947
8.273841,1775669125.408880,599617946251330846,-249,-370,-948
8.278841,1775669125.408880,599617946251330846,-246,-373,-947
8.280113,1775669125.542706,599617946427602824,-247,-371,-950
8.285113,1775669125.542706,599617946427602824,-244,-373,-948
8.290113,1775669125.542706,599617946427602824,-250,-369,-948
8.295113,1775669125.542706,599617946427602824,-247,-371,-946
8.300113,1775669125.542706,599617946427602824,-250,-372,-947
8.305113,1775669125.542706,599617946427602824,-248,-369,-945
8.310113,1775669125.542706,599617946427602824,-248,-372,-948
8.315113,1775669125.542706,599617946427602824,-252,-370,-948
8.320113,1775669125.542706,599617946427602824,-248,-370,-947
8.325113,1775669125.542706,599617946427602824,-244,-373,-947
8.330113,1775669125.542706,599617946427602824,-241,-372,-947
8.335113,1775669125.542706,599617946427602824,-238,-372,-948
8.340113,1775669125.542706,599617946427602824,-242,-369,-947
8.345113,1775669125.542706,599617946427602824,-243,-364,-945
8.350113,1775669125.542706,599617946427602824,-242,-364,-946
8.355113,1775669125.542706,599617946427602824,-239,-362,-945
8.360113,1775669125.542706,599617946427602824,-240,-363,-948
8.365113,1775669125.542706,599617946427602824,-242,-365,-946
8.370113,1775669125.542706,599617946427602824,-246,-366,-944
8.375113,1775669125.542706,599617946427602824,-244,-365,-946
8.380113,1775669125.542706,599617946427602824,-244,-365,-946
8.385113,1775669125.542706,599617946427602824,-241,-362,-948
8.390113,1775669125.542706,599617946427602824,-252,-373,-947
8.395113,1775669125.542706,599617946427602824,-243,-366,-943
8.400113,1775669125.542706,599617946427602824,-235,-354,-953
8.405113,1775669125.542706,599617946427602824,-242,-360,-949
8.410113,1775669125.542706,599617946427602824,-241,-365,-948
8.415113,1775669125.542706,599617946427602824,-242,-373,-948
8.420113,1775669125.542706,599617946427602824,-241,-371,-948
8.425113,1775669125.542706,599617946427602824,-247,-370,-947
8.430113,1775669125.542706,599617946427602824,-244,-366,-950
8.435113,1775669125.542706,599617946427602824,-246,-365,-948
8.440113,1775669125.542706,599617946427602824,-248,-365,-950
8.445113,1775669125.542706,599617946427602824,-247,-367,-947
8.450113,1775669125.542706,599617946427602824,-246,-370,-947
8.455113,1775669125.542706,599617946427602824,-246,-370,-947
8.456385,1775669125.722125,599617946603874792,-246,-368,-941
8.461385,1775669125.722125,599617946603874792,-245,-375,-947
8.466385,1775669125.722125,599617946603874792,-244,-373,-948
8.471385,1775669125.722125,599617946603874792,-244,-373,-947
8.476385,1775669125.722125,599617946603874792,-243,-369,-945
8.481385,1775669125.722125,599617946603874792,-239,-368,-944
8.486385,1775669125.722125,599617946603874792,-238,-362,-946
8.491385,1775669125.722125,599617946603874792,-244,-358,-946
8.496385,1775669125.722125,599617946603874792,-242,-361,-946
8.501385,1775669125.722125,599617946603874792,-245,-360,-946
8.506385,1775669125.722125,599617946603874792,-247,-367,-944
8.511385,1775669125.722125,599617946603874792,-246,-363,-945
8.516385,1775669125.722125,599617946603874792,-240,-363,-945
8.521385,1775669125.722125,599617946603874792,-239,-359,-948
8.526385,1775669125.722125,599617946603874792,-238,-363,-948
8.531385,1775669125.722125,599617946603874792,-243,-366,-948
8.536385,1775669125.722125,599617946603874792,-242,-361,-947
8.541385,1775669125.722125,599617946603874792,-244,-365,-948
8.546385,1775669125.722125,599617946603874792,-247,-366,-949
8.551385,1775669125.722125,599617946603874792,-249,-368,-948
8.556385,1775669125.722125,599617946603874792,-248,-368,-949
8.561385,1775669125.722125,599617946603874792,-246,-369,-949
8.566385,1775669125.722125,599617946603874792,-247,-368,-948
8.571385,1775669125.722125,599617946603874792,-243,-369,-950
8.576385,1775669125.722125,599617946603874792,-245,-370,-950
8.581385,1775669125.722125,599617946603874792,-243,-370,-946
8.586385,1775669125.722125,599617946603874792,-243,-369,-946
8.591385,1775669125.722125,599617946603874792,-244,-373,-947
8.596385,1775669125.722125,599617946603874792,-240,-377,-945
8.601385,1775669125.722125,599617946603874792,-242,-377,-946
8.606385,1775669125.722125,599617946603874792,-241,-376,-948
8.611385,1775669125.722125,599617946603874792,-240,-375,-947
8.616385,1775669125.722125,599617946603874792,-244,-375,-948
8.621385,1775669125.722125,599617946603874792,-247,-373,-946
8.626385,1775669125.722125,599617946603874792,-244,-373,-948
8.631385,1775669125.722125,599617946603874792,-246,-374,-947
8.632657,1775669125.994617,599617946780146760,-250,-370,-946
8.637657,1775669125.994617,599617946780146760,-244,-373,-944
8.642657,1775669125.994617,599617946780146760,-243,-369,-946
8.647657,1775669125.994617,599617946780146760,-243,-369,-947
8.652657,1775669125.994617,599617946780146760,-240,-365,-947
8.657657,1775669125.994617,599617946780146760,-241,-365,-945
8.662657,1775669125.994617,599617946780146760,-243,-369,-945
8.667657,1775669125.994617,599617946780146760,-246,-366,-946
8.672657,1775669125.994617,599617946780146760,-244,-370,-945
8.677657,1775669125.994617,599617946780146760,-247,-369,-947
8.682657,1775669125.994617,599617946780146760,-246,-369,-946
8.687657,1775669125.994617,599617946780146760,-246,-367,-946
8.692657,1775669125.994617,599617946780146760,-244,-369,-947
8.697657,1775669125.994617,599617946780146760,-242,-369,-945
8.702657,1775669125.994617,599617946780146760,-245,-368,-945
8.707657,1775669125.994617,599617946780146760,-246,-369,-947
8.712657,1775669125.994617,599617946780146760,-246,-372,-947
8.717657,1775669125.994617,599617946780146760,-245,-371,-948
8.722657,1775669125.994617,599617946780146760,-242,-368,-950
8.727657,1775669125.994617,599617946780146760,-238,-369,-949
8.732657,1775669125.994617,599617946780146760,-240,-367,-948
8.737657,1775669125.994617,599617946780146760,-240,-369,-946
8.742657,1775669125.994617,599617946780146760,-244,-368,-948
8.747657,1775669125.994617,599617946780146760,-248,-367,-948
8.752657,1775669125.994617,599617946780146760,-245,-371,-946
8.757657,1775669125.994617,599617946780146760,-247,-369,-947
8.762657,1775669125.994617,599617946780146760,-249,-373,-949
8.767657,1775669125.994617,599617946780146760,-250,-372,-950
8.772657,1775669125.994617,599617946780146760,-246,-374,-947
8.777657,1775669125.994617,599617946780146760,-245,-373,-948
8.782657,1775669125.994617,599617946780146760,-243,-373,-946
8.787657,1775669125.994617,599617946780146760,-241,-373,-946
8.792657,1775669125.994617,599617946780146760,-243,-374,-943
8.797657,1775669125.994617,599617946780146760,-244,-372,-945
8.802657,1775669125.994617,599617946780146760,-241,-375,-945
8.807657,1775669125.994617,599617946780146760,-242,-374,-944
8.808990,1775669126.128438,599617946956479784,-238,-378,-946
8.813990,1775669126.128438,599617946956479784,-242,-375,-944
8.818990,1775669126.128438,599617946956479784,-241,-375,-943
8.823990,1775669126.128438,599617946956479784,-240,-370,-947
8.828990,1775669126.128438,599617946956479784,-241,-368,-944
8.833990,1775669126.128438,599617946956479784,-241,-366,-946
8.838990,1775669126.128438,599617946956479784,-245,-371,-947
8.843990,1775669126.128438,599617946956479784,-244,-372,-946
8.848990,1775669126.128438,599617946956479784,-249,-370,-945
8.853990,1775669126.128438,599617946956479784,-247,-373,-946
8.858990,1775669126.128438,599617946956479784,-246,-371,-947
8.863990,1775669126.128438,599617946956479784,-244,-374,-948
8.868990,1775669126.128438,599617946956479784,-245,-378,-943
8.873990,1775669126.128438,599617946956479784,-250,-375,-949
8.878990,1775669126.128438,599617946956479784,-246,-369,-949
8.883990,1775669126.128438,599617946956479784,-249,-366,-943
8.888990,1775669126.128438,599617946956479784,-250,-368,-944
8.893990,1775669126.128438,599617946956479784,-243,-371,-948
8.898990,1775669126.128438,599617946956479784,-244,-369,-947
8.903990,1775669126.128438,599617946956479784,-248,-368,-946
8.908990,1775669126.128438,599617946956479784,-248,-373,-943
8.913990,1775669126.128438,599617946956479784,-248,-369,-945
8.918990,1775669126.128438,599617946956479784,-247,-372,-946
8.923990,1775669126.128438,599617946956479784,-245,-369,-947
8.928990,1775669126.128438,599617946956479784,-247,-368,-947
8.933990,1775669126.128438,599617946956479784,-242,-369,-947
8.938990,1775669126.128438,599617946956479784,-243,-365,-946
8.943990,1775669126.128438,599617946956479784,-244,-367,-947
8.948990,1775669126.128438,599617946956479784,-244,-370,-947
8.953990,1775669126.128438,599617946956479784,-250,-372,-946
8.958990,1775669126.128438,599617946956479784,-248,-372,-943
8.963990,1775669126.128438,599617946956479784,-248,-373,-946
8.968990,1775669126.128438,599617946956479784,-244,-373,-946
8.973990,1775669126.128438,599617946956479784,-250,-368,-945
8.978990,1775669126.128438,599617946956479784,-250,-371,-944
8.983990,1775669126.128438,599617946956479784,-246,-372,-946
8.985262,1775669126.267487,599617947132751732,-246,-369,-945
8.990262,1775669126.267487,599617947132751732,-246,-373,-946
8.995262,1775669126.267487,599617947132751732,-245,-374,-945
9.000262,1775669126.267487,599617947132751732,-245,-373,-946
9.005262,1775669126.267487,599617947132751732,-241,-372,-948
9.010262,1775669126.267487,599617947132751732,-242,-370,-947
9.015262,1775669126.267487,599617947132751732,-243,-372,-947
9.020262,1775669126.267487,599617947132751732,-246,-371,-947
9.025262,1775669126.267487,599617947132751732,-247,-370,-948
9.030262,1775669126.267487,599617947132751732,-250,-368,-947
9.035262,1775669126.267487,599617947132751732,-250,-375,-945
9.040262,1775669126.267487,599617947132751732,-247,-375,-945
9.045262,1775669126.267487,599617947132751732,-244,-374,-943
9.050262,1775669126.267487,599617947132751732,-245,-371,-947
9.055262,1775669126.267487,599617947132751732,-244,-370,-944
9.060262,1775669126.267487,599617947132751732,-242,-367,-948
9.065262,1775669126.267487,599617947132751732,-245,-372,-947
9.070262,1775669126.267487,599617947132751732,-245,-369,-946
9.075262,1775669126.267487,599617947132751732,-243,-369,-946
9.080262,1775669126.267487,599617947132751732,-246,-371,-944
9.085262,1775669126.267487,599617947132751732,-247,-367,-945
9.090262,1775669126.267487,599617947132751732,-249,-369,-944
9.095262,1775669126.267487,599617947132751732,-252,-359,-946
9.100262,1775669126.267487,599617947132751732,-241,-372,-952
9.105262,1775669126.267487,599617947132751732,-240,-373,-949
9.110262,1775669126.267487,599617947132751732,-245,-373,-947
9.115262,1775669126.267487,599617947132751732,-248,-366,-946
9.120262,1775669126.267487,599617947132751732,-246,-363,-946
9.125262,1775669126.267487,599617947132751732,-244,-368,-946
9.130262,1775669126.267487,599617947132751732,-243,-370,-947
9.135262,1775669126.267487,599617947132751732,-246,-373,-945
9.140262,1775669126.267487,599617947132751732,-250,-375,-945
9.145262,1775669126.267487,599617947132751732,-248,-372,-945
9.150262,1775669126.267487,599617947132751732,-244,-372,-946
9.155262,1775669126.267487,599617947132751732,-243,-374,-948
9.160262,1775669126.267487,599617947132751732,-244,-373,-949
9.161504,1775669126.443911,599617947308993172,-250,-371,-948
9.166504,1775669126.443911,599617947308993172,-251,-372,-946
9.171504,1775669126.443911,599617947308993172,-248,-374,-947
9.176504,1775669126.443911,599617947308993172,-250,-377,-943
9.181504,1775669126.443911,599617947308993172,-247,-378,-941
9.186504,1775669126.443911,599617947308993172,-249,-375,-937
9.191504,1775669126.443911,599617947308993172,-249,-374,-944
9.196504,1775669126.443911,599617947308993172,-245,-376,-942
9.201504,1775669126.443911,599617947308993172,-241,-375,-946
9.206504,1775669126.443911,599617947308993172,-240,-373,-951
9.211504,1775669126.443911,599617947308993172,-240,-369,-951
9.216504,1775669126.443911,599617947308993172,-244,-367,-951
9.221503,1775669126.443911,599617947308993172,-243,-371,-946
9.226503,1775669126.443911,599617947308993172,-253,-376,-943
9.231503,1775669126.443911,599617947308993172,-247,-379,-942
9.236503,1775669126.443911,599617947308993172,-239,-379,-944
9.241503,1775669126.443911,599617947308993172,-241,-376,-947
9.246503,1775669126.443911,599617947308993172,-246,-377,-946
9.251503,1775669126.443911,599617947308993172,-244,-375,-950
9.256503,1775669126.443911,599617947308993172,-244,-375,-948
9.261503,1775669126.443911,599617947308993172,-244,-376,-947
9.266503,1775669126.443911,599617947308993172,-244,-379,-946
9.271503,1775669126.443911,599617947308993172,-248,-379,-943
9.276504,1775669126.443911,599617947308993172,-248,-375,-942
9.281504,1775669126.443911,599617947308993172,-248,-377,-942
9.286504,1775669126.443911,599617947308993172,-245,-377,-942
9.291504,1775669126.443911,599617947308993172,-248,-372,-947
9.296504,1775669126.443911,599617947308993172,-243,-370,-948
9.301504,1775669126.443911,599617947308993172,-242,-372,-946
9.306504,1775669126.443911,599617947308993172,-244,-372,-948
9.311504,1775669126.443911,599617947308993172,-243,-373,-947
9.316504,1775669126.443911,599617947308993172,-244,-375,-947
9.321504,1775669126.443911,599617947308993172,-246,-375,-945
9.326504,1775669126.443911,599617947308993172,-249,-375,-945
9.331504,1775669126.443911,599617947308993172,-249,-373,-946
9.336504,1775669126.443911,599617947308993172,-248,-375,-946
9.337745,1775669126.622551,599617947485234622,-249,-377,-945
9.342745,1775669126.622551,599617947485234622,-247,-375,-945
9.347745,1775669126.622551,599617947485234622,-246,-374,-942
9.352745,1775669126.622551,599617947485234622,-246,-375,-947
9.357745,1775669126.622551,599617947485234622,-245,-376,-943
9.362745,1775669126.622551,599617947485234622,-248,-378,-941
9.367745,1775669126.622551,599617947485234622,-248,-378,-940
9.372745,1775669126.622551,599617947485234622,-246,-377,-941
9.377745,1775669126.622551,599617947485234622,-248,-377,-943
9.382745,1775669126.622551,599617947485234622,-244,-376,-943
9.387745,1775669126.622551,599617947485234622,-246,-375,-944
9.392745,1775669126.622551,599617947485234622,-245,-373,-947
9.397745,1775669126.622551,599617947485234622,-246,-375,-947
9.402745,1775669126.622551,599617947485234622,-246,-374,-946
9.407745,1775669126.622551,599617947485234622,-242,-369,-944
9.412745,1775669126.622551,599617947485234622,-243,-367,-946
9.417745,1775669126.622551,599617947485234622,-241,-366,-944
9.422745,1775669126.622551,599617947485234622,-256,-376,-942
9.427745,1775669126.622551,599617947485234622,-237,-374,-936
9.432745,1775669126.622551,599617947485234622,-237,-357,-951
9.437745,1775669126.622551,599617947485234622,-249,-364,-945
9.442745,1775669126.622551,599617947485234622,-247,-374,-943
9.447745,1775669126.622551,599617947485234622,-251,-372,-942
9.452745,1775669126.622551,599617947485234622,-251,-375,-942
9.457745,1775669126.622551,599617947485234622,-251,-375,-944
9.462745,1775669126.622551,599617947485234622,-252,-372,-943
