time,t_wall,t_device_ns,x,y,z
0.000000,1775669477.683285,599616027776812180,-415,502,-845
0.005000,1775669477.683285,599616027776812180,-413,504,-840
0.010000,1775669477.683285,599616027776812180,-408,503,-834
0.015000,1775669477.683285,599616027776812180,-399,507,-833
0.020000,1775669477.683285,599616027776812180,-389,505,-839
0.025000,1775669477.683285,599616027776812180,-389,500,-835
0.030000,1775669477.683285,599616027776812180,-390,500,-833
0.035000,1775669477.683285,599616027776812180,-389,500,-834
0.040000,1775669477.683285,599616027776812180,-387,503,-846
0.045000,1775669477.683285,599616027776812180,-402,504,-844
0.050000,1775669477.683285,599616027776812180,-396,495,-793
0.055000,1775669477.683285,599616027776812180,-379,510,-827
0.060000,1775669477.683285,599616027776812180,-379,532,-842
0.065000,1775669477.683285,599616027776812180,-390,522,-839
0.070000,1775669477.683285,599616027776812180,-392,504,-841
0.075000,1775669477.683285,599616027776812180,-397,494,-843
0.080000,1775669477.683285,599616027776812180,-398,495,-842
0.085000,1775669477.683285,599616027776812180,-398,496,-847
0.090000,1775669477.683285,599616027776812180,-395,495,-841
0.095000,1775669477.683285,599616027776812180,-396,500,-840
0.100000,1775669477.683285,599616027776812180,-397,500,-838
0.105000,1775669477.683285,599616027776812180,-391,500,-842
0.110000,1775669477.683285,599616027776812180,-395,495,-842
0.115000,1775669477.683285,599616027776812180,-391,495,-845
0.120000,1775669477.683285,599616027776812180,-399,497,-844
0.125000,1775669477.683285,599616027776812180,-403,499,-842
0.130000,1775669477.683285,599616027776812180,-404,500,-841
0.135000,1775669477.683285,599616027776812180,-407,505,-843
0.140000,1775669477.683285,599616027776812180,-404,505,-841
0.145000,1775669477.683285,599616027776812180,-396,503,-836
0.150000,1775669477.683285,599616027776812180,-387,497,-839
0.155000,1775669477.683285,599616027776812180,-391,499,-841
0.160000,1775669477.683285,599616027776812180,-392,497,-840
0.165000,1775669477.683285,599616027776812180,-386,497,-838
0.170000,1775669477.683285,599616027776812180,-390,499,-838
0.175000,1775669477.683285,599616027776812180,-388,499,-840
0.176211,1775669477.864974,599616027953023132,-389,499,-838
0.181211,1775669477.864974,599616027953023132,-390,499,-844
0.186211,1775669477.864974,599616027953023132,-393,496,-844
0.191211,1775669477.864974,599616027953023132,-391,497,-845
0.196211,1775669477.864974,599616027953023132,-394,495,-845
0.201211,1775669477.864974,599616027953023132,-399,494,-844
0.206211,1775669477.864974,599616027953023132,-405,493,-844
0.211211,1775669477.864974,599616027953023132,-405,494,-844
0.216211,1775669477.864974,599616027953023132,-408,498,-843
0.221211,1775669477.864974,599616027953023132,-408,502,-840
0.226211,1775669477.864974,599616027953023132,-406,504,-833
0.231211,1775669477.864974,599616027953023132,-396,508,-830
0.236211,1775669477.864974,599616027953023132,-394,503,-826
0.241211,1775669477.864974,599616027953023132,-399,503,-827
0.246211,1775669477.864974,599616027953023132,-405,499,-833
0.251211,1775669477.864974,599616027953023132,-404,496,-834
0.256211,1775669477.864974,599616027953023132,-407,495,-839
0.261211,1775669477.864974,599616027953023132,-406,497,-845
0.266211,1775669477.864974,599616027953023132,-398,498,-846
0.271211,1775669477.864974,599616027953023132,-394,497,-848
0.276211,1775669477.864974,599616027953023132,-392,497,-847
0.281211,1775669477.864974,599616027953023132,-398,499,-840
0.286211,1775669477.864974,599616027953023132,-400,500,-836
0.291211,1775669477.864974,599616027953023132,-404,501,-830
0.296211,1775669477.864974,599616027953023132,-407,502,-830
0.301211,1775669477.864974,599616027953023132,-413,502,-835
0.306211,1775669477.864974,599616027953023132,-412,502,-838
0.311211,1775669477.864974,599616027953023132,-412,498,-838
0.316211,1775669477.864974,599616027953023132,-410,497,-841
0.321211,1775669477.864974,599616027953023132,-404,499,-837
0.326211,1775669477.864974,599616027953023132,-397,500,-836
0.331211,1775669477.864974,599616027953023132,-386,502,-835
0.336211,1775669477.864974,599616027953023132,-384,504,-833
0.341211,1775669477.864974,599616027953023132,-386,501,-839
0.346211,1775669477.864974,599616027953023132,-378,499,-841
0.351211,1775669477.864974,599616027953023132,-376,501,-846
0.352391,1775669478.042340,599616028129203536,-377,500,-853
0.357391,1775669478.042340,599616028129203536,-380,499,-849
0.362391,1775669478.042340,599616028129203536,-387,498,-845
0.367391,1775669478.042340,599616028129203536,-391,500,-845
0.372391,1775669478.042340,599616028129203536,-395,499,-842
0.377391,1775669478.042340,599616028129203536,-405,496,-843
0.382391,1775669478.042340,599616028129203536,-409,496,-836
0.387391,1775669478.042340,599616028129203536,-413,499,-836
0.392391,1775669478.042340,599616028129203536,-413,500,-835
0.397391,1775669478.042340,599616028129203536,-411,496,-837
0.402391,1775669478.042340,599616028129203536,-409,496,-840
0.407391,1775669478.042340,599616028129203536,-397,496,-844
0.412391,1775669478.042340,599616028129203536,-381,498,-843
0.417391,1775669478.042340,599616028129203536,-376,496,-834
0.422391,1775669478.042340,599616028129203536,-366,493,-828
0.427391,1775669478.042340,599616028129203536,-346,500,-827
0.432391,1775669478.042340,599616028129203536,-338,539,-841
0.437391,1775669478.042340,599616028129203536,-364,537,-891
0.442391,1775669478.042340,599616028129203536,-390,491,-850
0.447391,1775669478.042340,599616028129203536,-366,493,-835
0.452391,1775669478.042340,599616028129203536,-391,497,-847
0.457391,1775669478.042340,599616028129203536,-406,494,-859
0.462391,1775669478.042340,599616028129203536,-416,489,-844
0.467391,1775669478.042340,599616028129203536,-420,492,-837
0.472391,1775669478.042340,599616028129203536,-415,495,-839
0.477391,1775669478.042340,599616028129203536,-410,500,-837
0.482391,1775669478.042340,599616028129203536,-392,510,-839
0.487391,1775669478.042340,599616028129203536,-373,508,-838
0.492391,1775669478.042340,599616028129203536,-359,510,-838
0.497391,1775669478.042340,599616028129203536,-358,506,-841
0.502391,1775669478.042340,599616028129203536,-365,498,-841
0.507391,1775669478.042340,599616028129203536,-375,497,-842
0.512391,1775669478.042340,599616028129203536,-387,498,-844
0.517391,1775669478.042340,599616028129203536,-394,499,-842
0.522391,1775669478.042340,599616028129203536,-403,498,-842
0.527391,1775669478.042340,599616028129203536,-410,498,-843
0.528633,1775669478.223501,599616028305444970,-418,495,-852
0.533633,1775669478.223501,599616028305444970,-418,495,-845
0.538633,1775669478.223501,599616028305444970,-418,495,-842
0.543633,1775669478.223501,599616028305444970,-417,496,-840
0.548633,1775669478.223501,599616028305444970,-409,496,-840
0.553633,1775669478.223501,599616028305444970,-403,495,-835
0.558633,1775669478.223501,599616028305444970,-387,495,-834
0.563633,1775669478.223501,599616028305444970,-378,499,-834
0.568633,1775669478.223501,599616028305444970,-373,496,-837
0.573633,1775669478.223501,599616028305444970,-367,496,-835
0.578633,1775669478.223501,599616028305444970,-372,498,-840
0.583633,1775669478.223501,599616028305444970,-375,500,-841
0.588633,1775669478.223501,599616028305444970,-386,502,-838
0.593633,1775669478.223501,599616028305444970,-391,502,-833
0.598633,1775669478.223501,599616028305444970,-393,500,-833
0.603633,1775669478.223501,599616028305444970,-398,500,-837
0.608633,1775669478.223501,599616028305444970,-405,498,-843
0.613633,1775669478.223501,599616028305444970,-411,495,-845
0.618633,1775669478.223501,599616028305444970,-413,498,-845
0.623633,1775669478.223501,599616028305444970,-410,500,-840
0.628633,1775669478.223501,599616028305444970,-407,500,-840
0.633633,1775669478.223501,599616028305444970,-408,500,-852
0.638633,1775669478.223501,599616028305444970,-415,498,-846
0.643633,1775669478.223501,599616028305444970,-416,483,-817
0.648633,1775669478.223501,599616028305444970,-399,500,-828
0.653633,1775669478.223501,599616028305444970,-386,517,-846
0.658633,1775669478.223501,599616028305444970,-385,518,-838
0.663633,1775669478.223501,599616028305444970,-374,505,-852
0.668633,1775669478.223501,599616028305444970,-360,494,-851
0.673633,1775669478.223501,599616028305444970,-366,492,-846
0.678633,1775669478.223501,599616028305444970,-375,494,-849
0.683633,1775669478.223501,599616028305444970,-383,496,-844
0.688633,1775669478.223501,599616028305444970,-395,496,-838
0.693633,1775669478.223501,599616028305444970,-401,498,-836
0.698633,1775669478.223501,599616028305444970,-405,501,-838
0.703633,1775669478.223501,599616028305444970,-408,497,-836
0.704844,1775669478.403205,599616028481655928,-407,497,-837
0.709844,1775669478.403205,599616028481655928,-402,497,-842
0.714844,1775669478.403205,599616028481655928,-390,495,-845
0.719844,1775669478.403205,599616028481655928,-381,494,-846
0.724844,1775669478.403205,599616028481655928,-374,494,-846
0.729844,1775669478.403205,599616028481655928,-371,495,-844
0.734844,1775669478.403205,599616028481655928,-367,494,-840
0.739844,1775669478.403205,599616028481655928,-375,495,-843
0.744844,1775669478.403205,599616028481655928,-378,495,-839
0.749844,1775669478.403205,599616028481655928,-390,497,-840
0.754844,1775669478.403205,599616028481655928,-403,498,-844
0.759844,1775669478.403205,599616028481655928,-409,499,-844
0.764844,1775669478.403205,599616028481655928,-403,504,-842
0.769844,1775669478.403205,599616028481655928,-394,511,-841
0.774844,1775669478.403205,599616028481655928,-383,515,-839
0.779844,1775669478.403205,599616028481655928,-382,509,-838
0.784844,1775669478.403205,599616028481655928,-368,503,-839
0.789844,1775669478.403205,599616028481655928,-360,499,-843
0.794844,1775669478.403205,599616028481655928,-365,500,-846
0.799844,1775669478.403205,599616028481655928,-364,505,-843
0.804844,1775669478.403205,599616028481655928,-372,509,-851
0.809844,1775669478.403205,599616028481655928,-379,512,-847
0.814844,1775669478.403205,599616028481655928,-389,505,-838
0.819844,1775669478.403205,599616028481655928,-398,502,-842
0.824844,1775669478.403205,599616028481655928,-394,501,-846
0.829844,1775669478.403205,599616028481655928,-394,503,-851
0.834844,1775669478.403205,599616028481655928,-390,501,-847
0.839844,1775669478.403205,599616028481655928,-383,500,-841
0.844844,1775669478.403205,599616028481655928,-377,496,-836
0.849844,1775669478.403205,599616028481655928,-377,496,-834
0.854844,1775669478.403205,599616028481655928,-383,499,-837
0.859844,1775669478.403205,599616028481655928,-393,500,-844
0.864844,1775669478.403205,599616028481655928,-399,507,-844
0.869844,1775669478.403205,599616028481655928,-397,505,-842
0.874844,1775669478.403205,599616028481655928,-393,501,-839
0.879844,1775669478.403205,599616028481655928,-384,503,-840
0.881055,1775669478.629610,599616028657866860,-380,508,-839
0.886055,1775669478.629610,599616028657866860,-381,503,-843
0.891055,1775669478.629610,599616028657866860,-382,504,-842
0.896055,1775669478.629610,599616028657866860,-386,505,-844
0.901055,1775669478.629610,599616028657866860,-390,507,-847
0.906055,1775669478.629610,599616028657866860,-398,508,-840
0.911055,1775669478.629610,599616028657866860,-404,501,-832
0.916055,1775669478.629610,599616028657866860,-407,496,-823
0.921055,1775669478.629610,599616028657866860,-399,503,-824
0.926055,1775669478.629610,599616028657866860,-392,531,-836
0.931055,1775669478.629610,599616028657866860,-398,511,-871
0.936055,1775669478.629610,599616028657866860,-409,482,-852
0.941055,1775669478.629610,599616028657866860,-386,485,-840
0.946055,1775669478.629610,599616028657866860,-388,495,-855
0.951055,1775669478.629610,599616028657866860,-395,491,-869
0.956055,1775669478.629610,599616028657866860,-395,485,-853
0.961055,1775669478.629610,599616028657866860,-398,485,-836
0.966055,1775669478.629610,599616028657866860,-394,492,-839
0.971055,1775669478.629610,599616028657866860,-393,494,-841
0.976055,1775669478.629610,599616028657866860,-390,500,-843
0.981055,1775669478.629610,599616028657866860,-375,506,-844
0.986055,1775669478.629610,599616028657866860,-372,510,-842
0.991055,1775669478.629610,599616028657866860,-374,515,-841
0.996055,1775669478.629610,599616028657866860,-375,506,-840
1.001055,1775669478.629610,599616028657866860,-374,502,-839
1.006055,1775669478.629610,599616028657866860,-388,496,-840
1.011055,1775669478.629610,599616028657866860,-400,500,-839
1.016055,1775669478.629610,599616028657866860,-400,495,-842
1.021055,1775669478.629610,599616028657866860,-398,495,-845
1.026055,1775669478.629610,599616028657866860,-400,494,-846
1.031055,1775669478.629610,599616028657866860,-405,494,-841
1.036055,1775669478.629610,599616028657866860,-408,494,-840
1.041055,1775669478.629610,599616028657866860,-405,496,-840
1.046055,1775669478.629610,599616028657866860,-406,496,-841
1.051055,1775669478.629610,599616028657866860,-405,497,-837
1.056055,1775669478.629610,599616028657866860,-403,501,-839
1.057235,1775669478.763247,599616028834047264,-395,508,-837
1.062235,1775669478.763247,599616028834047264,-383,504,-837
1.067235,1775669478.763247,599616028834047264,-367,507,-838
1.072235,1775669478.763247,599616028834047264,-359,504,-842
1.077235,1775669478.763247,599616028834047264,-357,502,-842
1.082235,1775669478.763247,599616028834047264,-362,503,-847
1.087235,1775669478.763247,599616028834047264,-367,501,-851
1.092235,1775669478.763247,599616028834047264,-380,500,-844
1.097235,1775669478.763247,599616028834047264,-386,498,-848
1.102235,1775669478.763247,599616028834047264,-394,499,-849
1.107235,1775669478.763247,599616028834047264,-395,503,-845
1.112235,1775669478.763247,599616028834047264,-394,501,-845
1.117235,1775669478.763247,599616028834047264,-391,502,-843
1.122235,1775669478.763247,599616028834047264,-383,499,-841
1.127235,1775669478.763247,599616028834047264,-378,500,-851
1.132235,1775669478.763247,599616028834047264,-396,502,-862
1.137235,1775669478.763247,599616028834047264,-406,491,-820
1.142235,1775669478.763247,599616028834047264,-394,502,-822
1.147235,1775669478.763247,599616028834047264,-383,526,-844
1.152235,1775669478.763247,599616028834047264,-377,522,-850
1.157235,1775669478.763247,599616028834047264,-364,499,-856
1.162235,1775669478.763247,599616028834047264,-357,495,-847
1.167235,1775669478.763247,599616028834047264,-361,498,-843
1.172235,1775669478.763247,599616028834047264,-370,504,-847
1.177235,1775669478.763247,599616028834047264,-374,503,-841
1.182235,1775669478.763247,599616028834047264,-383,498,-840
1.187235,1775669478.763247,599616028834047264,-391,499,-844
1.192235,1775669478.763247,599616028834047264,-397,497,-845
1.197235,1775669478.763247,599616028834047264,-397,496,-843
1.202235,1775669478.763247,599616028834047264,-391,494,-839
1.207235,1775669478.763247,599616028834047264,-389,500,-837
1.212235,1775669478.763247,599616028834047264,-386,498,-837
1.217235,1775669478.763247,599616028834047264,-376,497,-841
1.222235,1775669478.763247,599616028834047264,-375,498,-846
1.227235,1775669478.763247,599616028834047264,-372,498,-846
1.232235,1775669478.763247,599616028834047264,-367,500,-843
1.233476,1775669478.943383,599616029010288698,-375,505,-847
1.238476,1775669478.943383,599616029010288698,-383,511,-837
1.243476,1775669478.943383,599616029010288698,-387,510,-839
1.248476,1775669478.943383,599616029010288698,-389,507,-843
1.253476,1775669478.943383,599616029010288698,-386,500,-847
1.258476,1775669478.943383,599616029010288698,-378,500,-842
1.263476,1775669478.943383,599616029010288698,-377,502,-844
1.268476,1775669478.943383,599616029010288698,-372,503,-841
1.273476,1775669478.943383,599616029010288698,-376,498,-840
1.278476,1775669478.943383,599616029010288698,-378,500,-843
1.283476,1775669478.943383,599616029010288698,-387,502,-846
1.288476,1775669478.943383,599616029010288698,-392,503,-843
1.293476,1775669478.943383,599616029010288698,-393,507,-842
1.298476,1775669478.943383,599616029010288698,-394,504,-842
1.303476,1775669478.943383,599616029010288698,-392,507,-841
1.308476,1775669478.943383,599616029010288698,-390,509,-842
1.313476,1775669478.943383,599616029010288698,-390,503,-842
1.318476,1775669478.943383,599616029010288698,-386,503,-843
1.323476,1775669478.943383,599616029010288698,-387,498,-843
1.328476,1775669478.943383,599616029010288698,-376,496,-844
1.333476,1775669478.943383,599616029010288698,-365,494,-844
1.338476,1775669478.943383,599616029010288698,-362,495,-840
1.343476,1775669478.943383,599616029010288698,-370,494,-841
1.348476,1775669478.943383,599616029010288698,-377,495,-841
1.353476,1775669478.943383,599616029010288698,-390,496,-834
1.358476,1775669478.943383,599616029010288698,-385,497,-828
1.363476,1775669478.943383,599616029010288698,-366,526,-838
1.368476,1775669478.943383,599616029010288698,-379,534,-872
1.373476,1775669478.943383,599616029010288698,-410,488,-852
1.378476,1775669478.943383,599616029010288698,-393,488,-827
1.383476,1775669478.943383,599616029010288698,-395,496,-844
1.388476,1775669478.943383,599616029010288698,-386,496,-869
1.393476,1775669478.943383,599616029010288698,-378,491,-858
1.398476,1775669478.943383,599616029010288698,-379,490,-849
1.403476,1775669478.943383,599616029010288698,-390,491,-845
1.408476,1775669478.943383,599616029010288698,-389,495,-842
1.409688,1775669479.078213,599616029186499656,-384,503,-843
1.414688,1775669479.078213,599616029186499656,-374,507,-846
1.419688,1775669479.078213,599616029186499656,-364,509,-851
1.424688,1775669479.078213,599616029186499656,-366,505,-856
1.429688,1775669479.078213,599616029186499656,-372,500,-850
1.434687,1775669479.078213,599616029186499656,-378,496,-848
1.439687,1775669479.078213,599616029186499656,-390,495,-846
1.444687,1775669479.078213,599616029186499656,-401,494,-845
1.449687,1775669479.078213,599616029186499656,-404,495,-843
1.454687,1775669479.078213,599616029186499656,-405,493,-838
1.459687,1775669479.078213,599616029186499656,-403,493,-840
1.464687,1775669479.078213,599616029186499656,-406,497,-840
1.469687,1775669479.078213,599616029186499656,-400,496,-839
1.474687,1775669479.078213,599616029186499656,-390,499,-842
1.479687,1775669479.078213,599616029186499656,-392,498,-843
1.484687,1775669479.078213,599616029186499656,-385,498,-842
1.489687,1775669479.078213,599616029186499656,-375,497,-841
1.494687,1775669479.078213,599616029186499656,-369,497,-841
1.499687,1775669479.078213,599616029186499656,-360,497,-843
1.504687,1775669479.078213,599616029186499656,-364,500,-841
1.509687,1775669479.078213,599616029186499656,-363,502,-839
1.514687,1775669479.078213,599616029186499656,-376,504,-837
1.519687,1775669479.078213,599616029186499656,-384,504,-833
1.524688,1775669479.078213,599616029186499656,-396,500,-833
1.529688,1775669479.078213,599616029186499656,-404,499,-835
1.534688,1775669479.078213,599616029186499656,-410,498,-840
1.539688,1775669479.078213,599616029186499656,-410,501,-844
1.544688,1775669479.078213,599616029186499656,-395,500,-841
1.549688,1775669479.078213,599616029186499656,-377,501,-838
1.554688,1775669479.078213,599616029186499656,-358,500,-845
1.559687,1775669479.078213,599616029186499656,-347,497,-849
1.564687,1775669479.078213,599616029186499656,-346,495,-855
1.569687,1775669479.078213,599616029186499656,-355,500,-870
1.574687,1775669479.078213,599616029186499656,-382,493,-820
1.579687,1775669479.078213,599616029186499656,-388,495,-820
1.584687,1775669479.078213,599616029186499656,-385,520,-849
1.585929,1775669479.258191,599616029362741080,-394,508,-855
1.590929,1775669479.258191,599616029362741080,-389,495,-849
1.595929,1775669479.258191,599616029362741080,-383,494,-837
1.600929,1775669479.258191,599616029362741080,-383,500,-842
1.605929,1775669479.258191,599616029362741080,-377,501,-839
1.610929,1775669479.258191,599616029362741080,-385,500,-840
1.615929,1775669479.258191,599616029362741080,-382,501,-842
1.620929,1775669479.258191,599616029362741080,-387,502,-842
1.625929,1775669479.258191,599616029362741080,-386,500,-844
1.630929,1775669479.258191,599616029362741080,-383,500,-839
1.635929,1775669479.258191,599616029362741080,-382,497,-839
1.640929,1775669479.258191,599616029362741080,-378,501,-844
1.645929,1775669479.258191,599616029362741080,-383,503,-848
1.650929,1775669479.258191,599616029362741080,-390,502,-846
1.655929,1775669479.258191,599616029362741080,-388,503,-849
1.660929,1775669479.258191,599616029362741080,-395,501,-845
1.665929,1775669479.258191,599616029362741080,-397,498,-844
1.670929,1775669479.258191,599616029362741080,-397,498,-845
1.675929,1775669479.258191,599616029362741080,-402,496,-842
1.680929,1775669479.258191,599616029362741080,-401,495,-844
1.685929,1775669479.258191,599616029362741080,-398,495,-843
1.690929,1775669479.258191,599616029362741080,-402,498,-840
1.695929,1775669479.258191,599616029362741080,-392,500,-837
1.700929,1775669479.258191,599616029362741080,-384,502,-841
1.705929,1775669479.258191,599616029362741080,-381,502,-842
1.710929,1775669479.258191,599616029362741080,-372,502,-845
1.715929,1775669479.258191,599616029362741080,-361,501,-847
1.720929,1775669479.258191,599616029362741080,-356,498,-844
1.725929,1775669479.258191,599616029362741080,-358,498,-849
1.730929,1775669479.258191,599616029362741080,-360,494,-841
1.735929,1775669479.258191,599616029362741080,-376,494,-843
1.740929,1775669479.258191,599616029362741080,-385,494,-841
1.745929,1775669479.258191,599616029362741080,-397,494,-841
1.750929,1775669479.258191,599616029362741080,-403,494,-840
1.755929,1775669479.258191,599616029362741080,-412,494,-838
1.760929,1775669479.258191,599616029362741080,-412,496,-841
1.762109,1775669479.439515,599616029538921510,-412,497,-844
1.767109,1775669479.439515,599616029538921510,-407,499,-840
1.772109,1775669479.439515,599616029538921510,-398,500,-844
1.777109,1775669479.439515,599616029538921510,-387,500,-840
1.782109,1775669479.439515,599616029538921510,-378,499,-843
1.787109,1775669479.439515,599616029538921510,-374,500,-839
1.792109,1775669479.439515,599616029538921510,-371,498,-835
1.797109,1775669479.439515,599616029538921510,-366,501,-836
1.802109,1775669479.439515,599616029538921510,-365,504,-838
1.807109,1775669479.439515,599616029538921510,-377,507,-840
1.812109,1775669479.439515,599616029538921510,-378,504,-843
1.817109,1775669479.439515,599616029538921510,-392,499,-844
1.822109,1775669479.439515,599616029538921510,-403,500,-851
1.827109,1775669479.439515,599616029538921510,-404,497,-847
1.832109,1775669479.439515,599616029538921510,-409,497,-846
1.837109,1775669479.439515,599616029538921510,-411,498,-845
1.842109,1775669479.439515,599616029538921510,-408,502,-852
1.847109,1775669479.439515,599616029538921510,-407,500,-850
1.852109,1775669479.439515,599616029538921510,-401,499,-845
1.857109,1775669479.439515,599616029538921510,-395,501,-837
1.862109,1775669479.439515,599616029538921510,-381,499,-824
1.867109,1775669479.439515,599616029538921510,-357,506,-815
1.872109,1775669479.439515,599616029538921510,-348,520,-827
1.877109,1775669479.439515,599616029538921510,-365,505,-848
1.882109,1775669479.439515,599616029538921510,-371,495,-838
1.887109,1775669479.439515,599616029538921510,-365,498,-842
1.892109,1775669479.439515,599616029538921510,-374,496,-847
1.897109,1775669479.439515,599616029538921510,-385,492,-868
1.902109,1775669479.439515,599616029538921510,-402,485,-853
1.907109,1775669479.439515,599616029538921510,-407,483,-844
1.912109,1775669479.439515,599616029538921510,-403,490,-841
1.917109,1775669479.439515,599616029538921510,-402,495,-847
1.922109,1775669479.439515,599616029538921510,-393,501,-843
1.927109,1775669479.439515,599616029538921510,-388,504,-841
1.932109,1775669479.439515,599616029538921510,-390,506,-839
1.937109,1775669479.439515,599616029538921510,-392,505,-838
1.938320,1775669479.619568,599616029715132452,-391,498,-834
1.943320,1775669479.619568,599616029715132452,-401,500,-838
1.948320,1775669479.619568,599616029715132452,-401,497,-838
1.953320,1775669479.619568,599616029715132452,-394,499,-843
1.958320,1775669479.619568,599616029715132452,-398,500,-842
1.963320,1775669479.619568,599616029715132452,-401,502,-842
1.968320,1775669479.619568,599616029715132452,-405,500,-841
1.973320,1775669479.619568,599616029715132452,-401,500,-844
1.978320,1775669479.619568,599616029715132452,-399,501,-840
1.983320,1775669479.619568,599616029715132452,-395,506,-839
1.988320,1775669479.619568,599616029715132452,-394,508,-838
1.993320,1775669479.619568,599616029715132452,-386,510,-840
1.998320,1775669479.619568,599616029715132452,-374,507,-842
2.003320,1775669479.619568,599616029715132452,-369,500,-841
2.008320,1775669479.619568,599616029715132452,-363,498,-842
2.013320,1775669479.619568,599616029715132452,-366,495,-835
2.018320,1775669479.619568,599616029715132452,-370,497,-837
2.023320,1775669479.619568,599616029715132452,-381,497,-835
2.028320,1775669479.619568,599616029715132452,-392,500,-835
2.033320,1775669479.619568,599616029715132452,-403,502,-834
2.038320,1775669479.619568,599616029715132452,-404,500,-838
2.043320,1775669479.619568,599616029715132452,-408,499,-838
2.048320,1775669479.619568,599616029715132452,-406,502,-837
2.053320,1775669479.619568,599616029715132452,-400,504,-840
2.058320,1775669479.619568,599616029715132452,-396,506,-839
2.063320,1775669479.619568,599616029715132452,-392,503,-840
2.068320,1775669479.619568,599616029715132452,-385,503,-845
2.073320,1775669479.619568,599616029715132452,-379,498,-851
2.078320,1775669479.619568,599616029715132452,-385,497,-866
2.083320,1775669479.619568,599616029715132452,-396,501,-822
2.088320,1775669479.619568,599616029715132452,-401,496,-804
2.093320,1775669479.619568,599616029715132452,-392,521,-853
2.098320,1775669479.619568,599616029715132452,-385,513,-860
2.103320,1775669479.619568,599616029715132452,-378,500,-848
2.108320,1775669479.619568,599616029715132452,-368,500,-844
2.113320,1775669479.619568,599616029715132452,-364,502,-840
2.114501,1775669479.801128,599616029891312856,-379,508,-843
2.119501,1775669479.801128,599616029891312856,-384,506,-840
2.124501,1775669479.801128,599616029891312856,-390,503,-844
2.129501,1775669479.801128,599616029891312856,-387,505,-848
2.134501,1775669479.801128,599616029891312856,-388,502,-846
2.139501,1775669479.801128,599616029891312856,-389,503,-848
2.144501,1775669479.801128,599616029891312856,-388,500,-841
2.149501,1775669479.801128,599616029891312856,-394,498,-835
2.154501,1775669479.801128,599616029891312856,-402,498,-839
2.159501,1775669479.801128,599616029891312856,-407,497,-838
2.164501,1775669479.801128,599616029891312856,-404,499,-836
2.169501,1775669479.801128,599616029891312856,-404,499,-835
2.174501,1775669479.801128,599616029891312856,-400,498,-835
2.179501,1775669479.801128,599616029891312856,-394,497,-836
2.184501,1775669479.801128,599616029891312856,-384,499,-839
2.189501,1775669479.801128,599616029891312856,-377,501,-840
2.194501,1775669479.801128,599616029891312856,-362,499,-844
2.199501,1775669479.801128,599616029891312856,-360,498,-840
2.204501,1775669479.801128,599616029891312856,-359,498,-841
2.209501,1775669479.801128,599616029891312856,-372,498,-842
2.214501,1775669479.801128,599616029891312856,-389,496,-842
2.219501,1775669479.801128,599616029891312856,-400,498,-843
2.224501,1775669479.801128,599616029891312856,-408,501,-844
2.229501,1775669479.801128,599616029891312856,-410,501,-847
2.234501,1775669479.801128,599616029891312856,-409,501,-844
2.239501,1775669479.801128,599616029891312856,-411,504,-842
2.244501,1775669479.801128,599616029891312856,-403,504,-839
2.249501,1775669479.801128,599616029891312856,-396,502,-842
2.254501,1775669479.801128,599616029891312856,-392,503,-848
2.259501,1775669479.801128,599616029891312856,-387,505,-845
2.264501,1775669479.801128,599616029891312856,-381,504,-844
2.269501,1775669479.801128,599616029891312856,-374,501,-843
2.274501,1775669479.801128,599616029891312856,-363,497,-848
2.279501,1775669479.801128,599616029891312856,-355,498,-848
2.284501,1775669479.801128,599616029891312856,-356,499,-846
2.289501,1775669479.801128,599616029891312856,-364,501,-844
2.290742,1775669479.978993,599616030067554290,-371,496,-845
2.295742,1775669479.978993,599616030067554290,-387,498,-846
2.300742,1775669479.978993,599616030067554290,-408,497,-843
2.305742,1775669479.978993,599616030067554290,-414,496,-839
2.310742,1775669479.978993,599616030067554290,-418,498,-842
2.315742,1775669479.978993,599616030067554290,-417,500,-846
2.320742,1775669479.978993,599616030067554290,-416,496,-841
2.325742,1775669479.978993,599616030067554290,-409,498,-840
2.330742,1775669479.978993,599616030067554290,-401,500,-835
2.335742,1775669479.978993,599616030067554290,-389,500,-838
2.340742,1775669479.978993,599616030067554290,-385,500,-838
2.345742,1775669479.978993,599616030067554290,-382,501,-834
2.350742,1775669479.978993,599616030067554290,-383,500,-832
2.355742,1775669479.978993,599616030067554290,-392,500,-833
2.360742,1775669479.978993,599616030067554290,-399,496,-837
2.365742,1775669479.978993,599616030067554290,-401,500,-842
2.370742,1775669479.978993,599616030067554290,-402,498,-840
2.375742,1775669479.978993,599616030067554290,-398,499,-845
2.380742,1775669479.978993,599616030067554290,-391,495,-844
2.385742,1775669479.978993,599616030067554290,-379,497,-847
2.390742,1775669479.978993,599616030067554290,-371,498,-846
2.395742,1775669479.978993,599616030067554290,-363,495,-840
2.400742,1775669479.978993,599616030067554290,-371,496,-840
2.405742,1775669479.978993,599616030067554290,-366,494,-841
2.410742,1775669479.978993,599616030067554290,-381,495,-842
2.415742,1775669479.978993,599616030067554290,-395,493,-842
2.420742,1775669479.978993,599616030067554290,-402,496,-847
2.425742,1775669479.978993,599616030067554290,-407,499,-843
2.430742,1775669479.978993,599616030067554290,-411,498,-837
2.435742,1775669479.978993,599616030067554290,-413,502,-835
2.440742,1775669479.978993,599616030067554290,-410,503,-837
2.445742,1775669479.978993,599616030067554290,-408,500,-837
2.450742,1775669479.978993,599616030067554290,-400,502,-841
2.455742,1775669479.978993,599616030067554290,-391,504,-841
2.460742,1775669479.978993,599616030067554290,-377,498,-840
2.465742,1775669479.978993,599616030067554290,-368,499,-841
2.467045,1775669480.158050,599616030243856796,-365,500,-836
2.472045,1775669480.158050,599616030243856796,-359,499,-828
2.477045,1775669480.158050,599616030243856796,-362,513,-834
2.482045,1775669480.158050,599616030243856796,-384,511,-851
2.487045,1775669480.158050,599616030243856796,-396,501,-838
2.492045,1775669480.158050,599616030243856796,-387,510,-844
2.497045,1775669480.158050,599616030243856796,-397,501,-843
2.502045,1775669480.158050,599616030243856796,-404,495,-867
2.507045,1775669480.158050,599616030243856796,-410,491,-854
2.512045,1775669480.158050,599616030243856796,-407,489,-844
2.517045,1775669480.158050,599616030243856796,-400,493,-842
2.522045,1775669480.158050,599616030243856796,-393,499,-849
2.527045,1775669480.158050,599616030243856796,-381,507,-851
2.532045,1775669480.158050,599616030243856796,-376,509,-851
2.537045,1775669480.158050,599616030243856796,-381,510,-844
2.542045,1775669480.158050,599616030243856796,-382,508,-845
2.547045,1775669480.158050,599616030243856796,-384,506,-842
2.552045,1775669480.158050,599616030243856796,-389,500,-838
2.557045,1775669480.158050,599616030243856796,-395,498,-840
2.562045,1775669480.158050,599616030243856796,-407,500,-837
2.567044,1775669480.158050,599616030243856796,-414,499,-836
2.572044,1775669480.158050,599616030243856796,-415,495,-839
2.577044,1775669480.158050,599616030243856796,-416,494,-841
2.582045,1775669480.158050,599616030243856796,-415,494,-841
2.587045,1775669480.158050,599616030243856796,-413,494,-843
2.592045,1775669480.158050,599616030243856796,-407,496,-843
2.597045,1775669480.158050,599616030243856796,-399,497,-840
2.602045,1775669480.158050,599616030243856796,-392,499,-839
2.607045,1775669480.158050,599616030243856796,-385,499,-837
2.612045,1775669480.158050,599616030243856796,-378,497,-838
2.617045,1775669480.158050,599616030243856796,-371,497,-839
2.622045,1775669480.158050,599616030243856796,-371,499,-836
2.627045,1775669480.158050,599616030243856796,-381,503,-838
2.632045,1775669480.158050,599616030243856796,-387,499,-840
2.637045,1775669480.158050,599616030243856796,-393,500,-838
2.642045,1775669480.158050,599616030243856796,-397,497,-837
2.643225,1775669480.337607,599616030420037206,-396,500,-844
2.648225,1775669480.337607,599616030420037206,-404,499,-843
2.653225,1775669480.337607,599616030420037206,-405,498,-847
2.658225,1775669480.337607,599616030420037206,-406,500,-845
2.663225,1775669480.337607,599616030420037206,-405,499,-846
2.668225,1775669480.337607,599616030420037206,-407,496,-842
2.673225,1775669480.337607,599616030420037206,-406,498,-837
2.678225,1775669480.337607,599616030420037206,-400,498,-839
2.683225,1775669480.337607,599616030420037206,-400,503,-846
2.688225,1775669480.337607,599616030420037206,-409,511,-825
2.693225,1775669480.337607,599616030420037206,-408,498,-786
2.698225,1775669480.337607,599616030420037206,-407,512,-841
2.703225,1775669480.337607,599616030420037206,-400,512,-849
2.708225,1775669480.337607,599616030420037206,-396,500,-831
2.713225,1775669480.337607,599616030420037206,-380,500,-834
2.718225,1775669480.337607,599616030420037206,-375,504,-835
2.723225,1775669480.337607,599616030420037206,-377,505,-833
2.728225,1775669480.337607,599616030420037206,-379,507,-838
2.733225,1775669480.337607,599616030420037206,-379,503,-836
2.738225,1775669480.337607,599616030420037206,-387,500,-837
2.743225,1775669480.337607,599616030420037206,-395,496,-836
2.748225,1775669480.337607,599616030420037206,-402,497,-835
2.753225,1775669480.337607,599616030420037206,-405,498,-836
2.758225,1775669480.337607,599616030420037206,-409,500,-838
2.763225,1775669480.337607,599616030420037206,-410,500,-837
2.768225,1775669480.337607,599616030420037206,-407,504,-841
2.773225,1775669480.337607,599616030420037206,-408,504,-839
2.778225,1775669480.337607,599616030420037206,-408,501,-839
2.783225,1775669480.337607,599616030420037206,-402,504,-836
2.788225,1775669480.337607,599616030420037206,-402,505,-837
2.793225,1775669480.337607,599616030420037206,-390,501,-839
2.798225,1775669480.337607,599616030420037206,-387,500,-841
2.803225,1775669480.337607,599616030420037206,-384,498,-842
2.808225,1775669480.337607,599616030420037206,-381,498,-842
2.813225,1775669480.337607,599616030420037206,-378,500,-841
2.818225,1775669480.337607,599616030420037206,-381,498,-841
2.819405,1775669480.518140,599616030596217620,-381,495,-841
2.824405,1775669480.518140,599616030596217620,-387,497,-843
2.829405,1775669480.518140,599616030596217620,-391,500,-841
2.834405,1775669480.518140,599616030596217620,-396,504,-840
2.839405,1775669480.518140,599616030596217620,-400,501,-839
2.844405,1775669480.518140,599616030596217620,-402,503,-841
2.849405,1775669480.518140,599616030596217620,-406,502,-838
2.854405,1775669480.518140,599616030596217620,-408,502,-839
2.859405,1775669480.518140,599616030596217620,-405,499,-835
2.864405,1775669480.518140,599616030596217620,-399,499,-834
2.869405,1775669480.518140,599616030596217620,-392,502,-829
2.874405,1775669480.518140,599616030596217620,-390,502,-834
2.879405,1775669480.518140,599616030596217620,-387,504,-837
2.884405,1775669480.518140,599616030596217620,-388,502,-841
2.889405,1775669480.518140,599616030596217620,-386,499,-842
2.894405,1775669480.518140,599616030596217620,-384,501,-841
2.899405,1775669480.518140,599616030596217620,-379,505,-843
2.904405,1775669480.518140,599616030596217620,-388,505,-843
2.909405,1775669480.518140,599616030596217620,-400,507,-842
2.914405,1775669480.518140,599616030596217620,-405,510,-838
2.919405,1775669480.518140,599616030596217620,-406,507,-839
2.924405,1775669480.518140,599616030596217620,-403,507,-839
2.929405,1775669480.518140,599616030596217620,-407,509,-839
2.934405,1775669480.518140,599616030596217620,-407,510,-841
2.939405,1775669480.518140,599616030596217620,-405,506,-843
2.944405,1775669480.518140,599616030596217620,-398,505,-841
2.949405,1775669480.518140,599616030596217620,-391,503,-839
2.954405,1775669480.518140,599616030596217620,-378,506,-839
2.959405,1775669480.518140,599616030596217620,-374,507,-840
2.964405,1775669480.518140,599616030596217620,-371,505,-837
2.969405,1775669480.518140,599616030596217620,-375,503,-836
2.974405,1775669480.518140,599616030596217620,-384,500,-837
2.979405,1775669480.518140,599616030596217620,-393,500,-837
2.984405,1775669480.518140,599616030596217620,-401,497,-839
2.989405,1775669480.518140,599616030596217620,-407,495,-840
2.994405,1775669480.518140,599616030596217620,-412,501,-837
2.995677,1775669480.698413,599616030772489582,-413,503,-840
3.000677,1775669480.698413,599616030772489582,-413,506,-837
3.005677,1775669480.698413,599616030772489582,-412,506,-828
3.010677,1775669480.698413,599616030772489582,-413,506,-834
3.015677,1775669480.698413,599616030772489582,-410,499,-836
3.020677,1775669480.698413,599616030772489582,-406,501,-839
3.025677,1775669480.698413,599616030772489582,-401,501,-841
3.030677,1775669480.698413,599616030772489582,-392,502,-834
3.035677,1775669480.698413,599616030772489582,-387,504,-830
3.040677,1775669480.698413,599616030772489582,-382,508,-830
3.045677,1775669480.698413,599616030772489582,-374,503,-834
3.050677,1775669480.698413,599616030772489582,-379,501,-839
3.055677,1775669480.698413,599616030772489582,-386,501,-844
3.060677,1775669480.698413,599616030772489582,-398,499,-838
3.065677,1775669480.698413,599616030772489582,-403,502,-841
3.070677,1775669480.698413,599616030772489582,-401,501,-837
3.075677,1775669480.698413,599616030772489582,-400,504,-835
3.080677,1775669480.698413,599616030772489582,-395,507,-836
3.085677,1775669480.698413,599616030772489582,-401,512,-841
3.090677,1775669480.698413,599616030772489582,-401,512,-836
3.095677,1775669480.698413,599616030772489582,-399,507,-838
3.100677,1775669480.698413,599616030772489582,-401,500,-833
3.105677,1775669480.698413,599616030772489582,-405,499,-837
3.110677,1775669480.698413,599616030772489582,-406,498,-832
3.115677,1775669480.698413,599616030772489582,-405,497,-836
3.120677,1775669480.698413,599616030772489582,-406,499,-836
3.125677,1775669480.698413,599616030772489582,-404,504,-836
3.130677,1775669480.698413,599616030772489582,-399,510,-837
3.135677,1775669480.698413,599616030772489582,-399,515,-833
3.140677,1775669480.698413,599616030772489582,-399,518,-837
3.145677,1775669480.698413,599616030772489582,-398,511,-837
3.150677,1775669480.698413,599616030772489582,-401,506,-835
3.155677,1775669480.698413,599616030772489582,-400,506,-833
3.160677,1775669480.698413,599616030772489582,-401,505,-841
3.165677,1775669480.698413,599616030772489582,-409,504,-839
3.170677,1775669480.698413,599616030772489582,-409,503,-837
3.171919,1775669480.878853,599616030948731022,-408,500,-836
3.176919,1775669480.878853,599616030948731022,-411,502,-838
3.181919,1775669480.878853,599616030948731022,-409,504,-832
3.186919,1775669480.878853,599616030948731022,-407,503,-829
3.191919,1775669480.878853,599616030948731022,-402,510,-834
3.196919,1775669480.878853,599616030948731022,-396,510,-836
3.201919,1775669480.878853,599616030948731022,-383,511,-837
3.206919,1775669480.878853,599616030948731022,-374,508,-835
3.211919,1775669480.878853,599616030948731022,-376,506,-843
3.216919,1775669480.878853,599616030948731022,-383,504,-845
3.221919,1775669480.878853,599616030948731022,-391,505,-844
3.226919,1775669480.878853,599616030948731022,-395,506,-838
3.231919,1775669480.878853,599616030948731022,-395,507,-835
3.236919,1775669480.878853,599616030948731022,-401,509,-834
3.241919,1775669480.878853,599616030948731022,-406,505,-832
3.246919,1775669480.878853,599616030948731022,-407,506,-834
3.251919,1775669480.878853,599616030948731022,-410,506,-833
3.256919,1775669480.878853,599616030948731022,-410,508,-830
3.261919,1775669480.878853,599616030948731022,-409,508,-831
3.266919,1775669480.878853,599616030948731022,-406,510,-834
3.271919,1775669480.878853,599616030948731022,-402,509,-835
3.276919,1775669480.878853,599616030948731022,-402,506,-832
3.281919,1775669480.878853,599616030948731022,-400,502,-838
3.286919,1775669480.878853,599616030948731022,-404,504,-840
3.291919,1775669480.878853,599616030948731022,-389,500,-840
3.296919,1775669480.878853,599616030948731022,-383,505,-838
3.301919,1775669480.878853,599616030948731022,-373,506,-842
3.306919,1775669480.878853,599616030948731022,-360,507,-838
3.311919,1775669480.878853,599616030948731022,-371,503,-842
3.316919,1775669480.878853,599616030948731022,-379,534,-837
3.321919,1775669480.878853,599616030948731022,-385,506,-853
3.326919,1775669480.878853,599616030948731022,-400,485,-854
3.331919,1775669480.878853,599616030948731022,-409,487,-851
3.336919,1775669480.878853,599616030948731022,-409,489,-848
3.341919,1775669480.878853,599616030948731022,-411,493,-845
3.346919,1775669480.878853,599616030948731022,-410,496,-847
3.348099,1775669481.058400,599616031124911452,-409,507,-846
3.353099,1775669481.058400,599616031124911452,-409,507,-847
3.358099,1775669481.058400,599616031124911452,-403,509,-846
3.363099,1775669481.058400,599616031124911452,-395,501,-840
3.368099,1775669481.058400,599616031124911452,-386,504,-825
3.373099,1775669481.058400,599616031124911452,-362,515,-804
3.378099,1775669481.058400,599616031124911452,-348,543,-817
3.383099,1775669481.058400,599616031124911452,-386,522,-851
3.388099,1775669481.058400,599616031124911452,-403,505,-811
3.393099,1775669481.058400,599616031124911452,-390,526,-830
3.398099,1775669481.058400,599616031124911452,-401,520,-847
3.403099,1775669481.058400,599616031124911452,-411,498,-849
3.408099,1775669481.058400,599616031124911452,-415,492,-835
3.413099,1775669481.058400,599616031124911452,-419,493,-842
3.418099,1775669481.058400,599616031124911452,-417,500,-846
3.423099,1775669481.058400,599616031124911452,-416,507,-844
3.428099,1775669481.058400,599616031124911452,-406,508,-840
3.433099,1775669481.058400,599616031124911452,-396,504,-831
3.438099,1775669481.058400,599616031124911452,-390,502,-830
3.443099,1775669481.058400,599616031124911452,-397,503,-834
3.448099,1775669481.058400,599616031124911452,-403,501,-836
3.453099,1775669481.058400,599616031124911452,-411,501,-834
3.458099,1775669481.058400,599616031124911452,-412,501,-835
3.463099,1775669481.058400,599616031124911452,-412,496,-836
3.468099,1775669481.058400,599616031124911452,-413,496,-837
3.473099,1775669481.058400,599616031124911452,-412,495,-838
3.478099,1775669481.058400,599616031124911452,-411,496,-839
3.483099,1775669481.058400,599616031124911452,-408,497,-842
3.488099,1775669481.058400,599616031124911452,-403,496,-843
3.493099,1775669481.058400,599616031124911452,-399,495,-843
3.498099,1775669481.058400,599616031124911452,-393,497,-837
3.503099,1775669481.058400,599616031124911452,-391,500,-837
3.508099,1775669481.058400,599616031124911452,-395,506,-836
3.513099,1775669481.058400,599616031124911452,-392,503,-835
3.518099,1775669481.058400,599616031124911452,-388,503,-837
3.523099,1775669481.058400,599616031124911452,-390,502,-839
3.524371,1775669481.193446,599616031301183414,-378,500,-834
3.529371,1775669481.193446,599616031301183414,-389,502,-839
3.534371,1775669481.193446,599616031301183414,-394,504,-839
3.539371,1775669481.193446,599616031301183414,-395,504,-835
3.544371,1775669481.193446,599616031301183414,-397,500,-837
3.549371,1775669481.193446,599616031301183414,-398,499,-840
3.554371,1775669481.193446,599616031301183414,-402,495,-840
3.559371,1775669481.193446,599616031301183414,-408,496,-841
3.564371,1775669481.193446,599616031301183414,-411,497,-837
3.569371,1775669481.193446,599616031301183414,-416,499,-834
3.574371,1775669481.193446,599616031301183414,-413,504,-841
3.579371,1775669481.193446,599616031301183414,-408,511,-837
3.584371,1775669481.193446,599616031301183414,-403,506,-855
3.589371,1775669481.193446,599616031301183414,-403,496,-816
3.594371,1775669481.193446,599616031301183414,-392,495,-788
3.599371,1775669481.193446,599616031301183414,-381,515,-845
3.604371,1775669481.193446,599616031301183414,-386,519,-867
3.609371,1775669481.193446,599616031301183414,-386,498,-843
3.614371,1775669481.193446,599616031301183414,-382,493,-834
3.619371,1775669481.193446,599616031301183414,-385,500,-838
3.624371,1775669481.193446,599616031301183414,-392,504,-838
3.629371,1775669481.193446,599616031301183414,-398,505,-837
3.634371,1775669481.193446,599616031301183414,-407,506,-834
3.639371,1775669481.193446,599616031301183414,-414,503,-841
3.644371,1775669481.193446,599616031301183414,-415,503,-838
3.649371,1775669481.193446,599616031301183414,-414,501,-839
3.654371,1775669481.193446,599616031301183414,-409,495,-838
3.659371,1775669481.193446,599616031301183414,-404,494,-835
3.664371,1775669481.193446,599616031301183414,-395,495,-839
3.669371,1775669481.193446,599616031301183414,-389,499,-840
3.674371,1775669481.193446,599616031301183414,-397,498,-841
3.679371,1775669481.193446,599616031301183414,-401,497,-841
3.684371,1775669481.193446,599616031301183414,-402,499,-841
3.689371,1775669481.193446,599616031301183414,-402,496,-843
3.694371,1775669481.193446,599616031301183414,-406,496,-840
3.699371,1775669481.193446,599616031301183414,-407,499,-842
3.700674,1775669481.373597,599616031477485910,-409,501,-843
3.705674,1775669481.373597,599616031477485910,-404,496,-839
3.710674,1775669481.373597,599616031477485910,-406,495,-837
3.715674,1775669481.373597,599616031477485910,-409,498,-834
3.720674,1775669481.373597,599616031477485910,-404,499,-829
3.725674,1775669481.373597,599616031477485910,-403,506,-831
3.730674,1775669481.373597,599616031477485910,-401,508,-834
3.735674,1775669481.373597,599616031477485910,-404,503,-835
3.740674,1775669481.373597,599616031477485910,-405,507,-836
3.745674,1775669481.373597,599616031477485910,-406,506,-835
3.750674,1775669481.373597,599616031477485910,-407,506,-836
3.755674,1775669481.373597,599616031477485910,-403,509,-840
3.760674,1775669481.373597,599616031477485910,-401,506,-837
3.765674,1775669481.373597,599616031477485910,-399,500,-835
3.770674,1775669481.373597,599616031477485910,-392,497,-838
3.775674,1775669481.373597,599616031477485910,-396,497,-837
3.780674,1775669481.373597,599616031477485910,-397,496,-841
3.785674,1775669481.373597,599616031477485910,-403,496,-844
3.790674,1775669481.373597,599616031477485910,-404,496,-843
3.795674,1775669481.373597,599616031477485910,-407,498,-846
3.800674,1775669481.373597,599616031477485910,-406,498,-841
3.805674,1775669481.373597,599616031477485910,-407,499,-839
3.810674,1775669481.373597,599616031477485910,-409,502,-839
3.815674,1775669481.373597,599616031477485910,-410,499,-834
3.820674,1775669481.373597,599616031477485910,-408,503,-836
3.825674,1775669481.373597,599616031477485910,-407,500,-837
3.830674,1775669481.373597,599616031477485910,-403,499,-837
3.835674,1775669481.373597,599616031477485910,-402,500,-840
3.840674,1775669481.373597,599616031477485910,-397,500,-837
3.845674,1775669481.373597,599616031477485910,-395,498,-835
3.850674,1775669481.373597,599616031477485910,-396,499,-831
3.855674,1775669481.373597,599616031477485910,-401,501,-838
3.860674,1775669481.373597,599616031477485910,-407,497,-837
3.865674,1775669481.373597,599616031477485910,-409,500,-835
3.870674,1775669481.373597,599616031477485910,-406,503,-831
3.875674,1775669481.373597,599616031477485910,-401,503,-829
3.876946,1775669481.555650,599616031653757868,-398,503,-828
3.881946,1775669481.555650,599616031653757868,-407,502,-827
3.886946,1775669481.555650,599616031653757868,-414,512,-829
3.891946,1775669481.555650,599616031653757868,-415,516,-835
3.896946,1775669481.555650,599616031653757868,-416,511,-832
3.901946,1775669481.555650,599616031653757868,-413,511,-832
3.906946,1775669481.555650,599616031653757868,-409,515,-835
3.911946,1775669481.555650,599616031653757868,-407,508,-835
3.916946,1775669481.555650,599616031653757868,-401,508,-837
3.921946,1775669481.555650,599616031653757868,-405,502,-834
3.926946,1775669481.555650,599616031653757868,-408,496,-832
3.931946,1775669481.555650,599616031653757868,-407,496,-834
3.936946,1775669481.555650,599616031653757868,-408,499,-837
3.941946,1775669481.555650,599616031653757868,-408,507,-834
3.946946,1775669481.555650,599616031653757868,-408,502,-835
3.951946,1775669481.555650,599616031653757868,-413,500,-836
3.956946,1775669481.555650,599616031653757868,-415,502,-834
3.961946,1775669481.555650,599616031653757868,-415,503,-835
3.966946,1775669481.555650,599616031653757868,-412,503,-835
3.971946,1775669481.555650,599616031653757868,-409,504,-837
3.976946,1775669481.555650,599616031653757868,-405,508,-838
3.981946,1775669481.555650,599616031653757868,-403,505,-834
3.986946,1775669481.555650,599616031653757868,-400,504,-834
3.991946,1775669481.555650,599616031653757868,-403,501,-831
3.996946,1775669481.555650,599616031653757868,-400,502,-829
4.001946,1775669481.555650,599616031653757868,-397,509,-830
4.006946,1775669481.555650,599616031653757868,-392,505,-834
4.011946,1775669481.555650,599616031653757868,-390,510,-831
4.016946,1775669481.555650,599616031653757868,-394,509,-830
4.021946,1775669481.555650,599616031653757868,-400,508,-828
4.026946,1775669481.555650,599616031653757868,-406,503,-832
4.031946,1775669481.555650,599616031653757868,-410,498,-832
4.036946,1775669481.555650,599616031653757868,-409,500,-838
4.041946,1775669481.555650,599616031653757868,-411,500,-841
4.046946,1775669481.555650,599616031653757868,-410,505,-838
4.051946,1775669481.555650,599616031653757868,-410,507,-835
4.053157,1775669481.734875,599616031829968816,-405,505,-834
4.058157,1775669481.734875,599616031829968816,-403,502,-831
4.063157,1775669481.734875,599616031829968816,-405,497,-829
4.068157,1775669481.734875,599616031829968816,-400,498,-831
4.073157,1775669481.734875,599616031829968816,-404,497,-830
4.078157,1775669481.734875,599616031829968816,-404,500,-830
4.083157,1775669481.734875,599616031829968816,-408,502,-836
4.088157,1775669481.734875,599616031829968816,-407,508,-836
4.093157,1775669481.734875,599616031829968816,-408,511,-838
4.098157,1775669481.734875,599616031829968816,-407,509,-837
4.103157,1775669481.734875,599616031829968816,-401,510,-834
4.108157,1775669481.734875,599616031829968816,-403,509,-831
4.113157,1775669481.734875,599616031829968816,-406,507,-832
4.118157,1775669481.734875,599616031829968816,-407,509,-838
4.123157,1775669481.734875,599616031829968816,-406,506,-841
4.128157,1775669481.734875,599616031829968816,-408,504,-842
4.133157,1775669481.734875,599616031829968816,-403,503,-842
4.138157,1775669481.734875,599616031829968816,-397,500,-843
4.143157,1775669481.734875,599616031829968816,-394,501,-841
4.148157,1775669481.734875,599616031829968816,-398,500,-840
4.153157,1775669481.734875,599616031829968816,-404,498,-834
4.158157,1775669481.734875,599616031829968816,-410,503,-831
4.163157,1775669481.734875,599616031829968816,-412,503,-824
4.168157,1775669481.734875,599616031829968816,-414,506,-823
4.173157,1775669481.734875,599616031829968816,-416,501,-827
4.178157,1775669481.734875,599616031829968816,-416,500,-833
4.183157,1775669481.734875,599616031829968816,-418,496,-833
4.188157,1775669481.734875,599616031829968816,-416,496,-826
4.193157,1775669481.734875,599616031829968816,-406,496,-820
4.198157,1775669481.734875,599616031829968816,-393,510,-821
4.203157,1775669481.734875,599616031829968816,-387,513,-835
4.208157,1775669481.734875,599616031829968816,-395,508,-824
4.213157,1775669481.734875,599616031829968816,-375,525,-835
4.218157,1775669481.734875,599616031829968816,-374,525,-835
4.223157,1775669481.734875,599616031829968816,-389,517,-845
4.228157,1775669481.734875,599616031829968816,-407,498,-855
4.229429,1775669481.913968,599616032006240768,-419,497,-833
4.234429,1775669481.913968,599616032006240768,-427,503,-837
4.239429,1775669481.913968,599616032006240768,-429,517,-841
4.244429,1775669481.913968,599616032006240768,-421,524,-838
4.249429,1775669481.913968,599616032006240768,-419,518,-834
4.254429,1775669481.913968,599616032006240768,-414,504,-832
4.259429,1775669481.913968,599616032006240768,-410,497,-830
4.264428,1775669481.913968,599616032006240768,-408,495,-836
4.269428,1775669481.913968,599616032006240768,-401,494,-831
4.274428,1775669481.913968,599616032006240768,-398,496,-831
4.279428,1775669481.913968,599616032006240768,-391,498,-834
4.284428,1775669481.913968,599616032006240768,-388,498,-836
4.289428,1775669481.913968,599616032006240768,-397,496,-838
4.294428,1775669481.913968,599616032006240768,-407,498,-837
4.299428,1775669481.913968,599616032006240768,-411,498,-841
4.304428,1775669481.913968,599616032006240768,-415,494,-837
4.309428,1775669481.913968,599616032006240768,-416,492,-838
4.314428,1775669481.913968,599616032006240768,-419,489,-836
4.319428,1775669481.913968,599616032006240768,-420,491,-836
4.324428,1775669481.913968,599616032006240768,-419,494,-836
4.329428,1775669481.913968,599616032006240768,-416,495,-838
4.334428,1775669481.913968,599616032006240768,-412,492,-834
4.339428,1775669481.913968,599616032006240768,-404,495,-837
4.344429,1775669481.913968,599616032006240768,-397,496,-834
4.349429,1775669481.913968,599616032006240768,-395,496,-837
4.354429,1775669481.913968,599616032006240768,-393,496,-835
4.359429,1775669481.913968,599616032006240768,-383,498,-835
4.364429,1775669481.913968,599616032006240768,-380,502,-836
4.369429,1775669481.913968,599616032006240768,-378,504,-837
4.374429,1775669481.913968,599616032006240768,-376,505,-837
4.379429,1775669481.913968,599616032006240768,-378,501,-837
4.384429,1775669481.913968,599616032006240768,-384,499,-841
4.389428,1775669481.913968,599616032006240768,-396,496,-844
4.394428,1775669481.913968,599616032006240768,-405,494,-844
4.399428,1775669481.913968,599616032006240768,-413,495,-846
4.404428,1775669481.913968,599616032006240768,-417,499,-845
4.405670,1775669482.093576,599616032182482208,-421,505,-868
4.410670,1775669482.093576,599616032182482208,-420,498,-794
4.415670,1775669482.093576,599616032182482208,-411,503,-804
4.420670,1775669482.093576,599616032182482208,-404,530,-843
4.425670,1775669482.093576,599616032182482208,-410,528,-848
4.430670,1775669482.093576,599616032182482208,-404,508,-838
4.435670,1775669482.093576,599616032182482208,-389,498,-834
4.440670,1775669482.093576,599616032182482208,-386,502,-834
4.445670,1775669482.093576,599616032182482208,-391,509,-839
4.450670,1775669482.093576,599616032182482208,-393,511,-840
4.455670,1775669482.093576,599616032182482208,-384,517,-841
4.460670,1775669482.093576,599616032182482208,-380,520,-841
4.465670,1775669482.093576,599616032182482208,-380,512,-841
4.470670,1775669482.093576,599616032182482208,-390,505,-839
4.475670,1775669482.093576,599616032182482208,-399,500,-836
4.480670,1775669482.093576,599616032182482208,-399,500,-836
4.485670,1775669482.093576,599616032182482208,-403,496,-832
4.490670,1775669482.093576,599616032182482208,-410,496,-831
4.495670,1775669482.093576,599616032182482208,-413,497,-832
4.500670,1775669482.093576,599616032182482208,-414,496,-838
4.505670,1775669482.093576,599616032182482208,-413,497,-839
4.510670,1775669482.093576,599616032182482208,-412,498,-840
4.515670,1775669482.093576,599616032182482208,-407,500,-841
4.520670,1775669482.093576,599616032182482208,-401,501,-840
4.525670,1775669482.093576,599616032182482208,-396,500,-842
4.530670,1775669482.093576,599616032182482208,-394,499,-843
4.535670,1775669482.093576,599616032182482208,-402,500,-842
4.540670,1775669482.093576,599616032182482208,-403,498,-838
4.545670,1775669482.093576,599616032182482208,-407,501,-836
4.550670,1775669482.093576,599616032182482208,-409,500,-839
4.555670,1775669482.093576,599616032182482208,-407,497,-842
4.560670,1775669482.093576,599616032182482208,-409,496,-842
4.565670,1775669482.093576,599616032182482208,-410,496,-841
4.570670,1775669482.093576,599616032182482208,-407,496,-840
4.575670,1775669482.093576,599616032182482208,-393,498,-840
4.580670,1775669482.093576,599616032182482208,-388,496,-841
4.581912,1775669482.320264,599616032358723658,-380,496,-840
4.586912,1775669482.320264,599616032358723658,-390,494,-845
4.591912,1775669482.320264,599616032358723658,-396,493,-845
4.596912,1775669482.320264,599616032358723658,-402,493,-845
4.601912,1775669482.320264,599616032358723658,-405,494,-840
4.606912,1775669482.320264,599616032358723658,-403,494,-836
4.611912,1775669482.320264,599616032358723658,-399,499,-836
4.616912,1775669482.320264,599616032358723658,-399,498,-839
4.621912,1775669482.320264,599616032358723658,-399,501,-840
4.626912,1775669482.320264,599616032358723658,-397,500,-840
4.631912,1775669482.320264,599616032358723658,-391,497,-839
4.636912,1775669482.320264,599616032358723658,-392,497,-834
4.641912,1775669482.320264,599616032358723658,-395,500,-836
4.646912,1775669482.320264,599616032358723658,-393,505,-835
4.651911,1775669482.320264,599616032358723658,-400,506,-830
4.656911,1775669482.320264,599616032358723658,-397,509,-825
4.661911,1775669482.320264,599616032358723658,-401,503,-830
4.666911,1775669482.320264,599616032358723658,-407,499,-834
4.671911,1775669482.320264,599616032358723658,-408,498,-835
4.676911,1775669482.320264,599616032358723658,-409,501,-838
4.681911,1775669482.320264,599616032358723658,-411,501,-837
4.686911,1775669482.320264,599616032358723658,-408,502,-835
4.691911,1775669482.320264,599616032358723658,-409,500,-841
4.696912,1775669482.320264,599616032358723658,-413,495,-840
4.701912,1775669482.320264,599616032358723658,-413,494,-842
4.706912,1775669482.320264,599616032358723658,-411,494,-841
4.711912,1775669482.320264,599616032358723658,-406,497,-841
4.716912,1775669482.320264,599616032358723658,-402,500,-838
4.721912,1775669482.320264,599616032358723658,-395,502,-833
4.726912,1775669482.320264,599616032358723658,-394,504,-834
4.731912,1775669482.320264,599616032358723658,-394,505,-832
4.736912,1775669482.320264,599616032358723658,-392,501,-834
4.741912,1775669482.320264,599616032358723658,-396,501,-839
4.746912,1775669482.320264,599616032358723658,-407,498,-841
4.751912,1775669482.320264,599616032358723658,-411,502,-840
4.756912,1775669482.320264,599616032358723658,-409,499,-837
4.758153,1775669482.453587,599616032534965108,-406,496,-842
4.763153,1775669482.453587,599616032534965108,-403,500,-837
4.768153,1775669482.453587,599616032534965108,-400,496,-838
4.773153,1775669482.453587,599616032534965108,-402,501,-842
4.778153,1775669482.453587,599616032534965108,-399,500,-840
4.783153,1775669482.453587,599616032534965108,-403,503,-837
4.788153,1775669482.453587,599616032534965108,-402,502,-839
4.793153,1775669482.453587,599616032534965108,-397,500,-836
4.798153,1775669482.453587,599616032534965108,-401,500,-839
4.803153,1775669482.453587,599616032534965108,-398,499,-841
4.808153,1775669482.453587,599616032534965108,-398,498,-843
4.813153,1775669482.453587,599616032534965108,-398,497,-841
4.818153,1775669482.453587,599616032534965108,-390,499,-840
4.823153,1775669482.453587,599616032534965108,-384,497,-837
4.828153,1775669482.453587,599616032534965108,-384,495,-839
4.833153,1775669482.453587,599616032534965108,-388,495,-841
4.838153,1775669482.453587,599616032534965108,-396,494,-846
4.843153,1775669482.453587,599616032534965108,-397,494,-846
4.848153,1775669482.453587,599616032534965108,-402,496,-847
4.853153,1775669482.453587,599616032534965108,-396,497,-845
4.858153,1775669482.453587,599616032534965108,-391,496,-842
4.863153,1775669482.453587,599616032534965108,-387,497,-840
4.868153,1775669482.453587,599616032534965108,-391,497,-845
4.873153,1775669482.453587,599616032534965108,-397,495,-842
4.878153,1775669482.453587,599616032534965108,-399,497,-838
4.883153,1775669482.453587,599616032534965108,-405,496,-839
4.888153,1775669482.453587,599616032534965108,-407,499,-837
4.893153,1775669482.453587,599616032534965108,-405,502,-838
4.898153,1775669482.453587,599616032534965108,-398,504,-836
4.903153,1775669482.453587,599616032534965108,-388,501,-838
4.908153,1775669482.453587,599616032534965108,-378,500,-839
4.913153,1775669482.453587,599616032534965108,-379,503,-845
4.918153,1775669482.453587,599616032534965108,-382,498,-845
4.923153,1775669482.453587,599616032534965108,-376,498,-842
4.928153,1775669482.453587,599616032534965108,-382,498,-838
4.933153,1775669482.453587,599616032534965108,-383,495,-828
4.934364,1775669482.633033,599616032711176066,-377,499,-823
4.939364,1775669482.633033,599616032711176066,-374,523,-831
4.944364,1775669482.633033,599616032711176066,-397,526,-862
4.949364,1775669482.633033,599616032711176066,-416,503,-843
4.954364,1775669482.633033,599616032711176066,-405,510,-840
4.959364,1775669482.633033,599616032711176066,-399,515,-840
4.964364,1775669482.633033,599616032711176066,-400,500,-851
4.969364,1775669482.633033,599616032711176066,-406,492,-855
4.974364,1775669482.633033,599616032711176066,-412,492,-837
4.979364,1775669482.633033,599616032711176066,-412,495,-840
4.984364,1775669482.633033,599616032711176066,-402,504,-846
4.989364,1775669482.633033,599616032711176066,-393,513,-847
4.994364,1775669482.633033,599616032711176066,-376,518,-847
4.999364,1775669482.633033,599616032711176066,-363,506,-845
5.004364,1775669482.633033,599616032711176066,-359,506,-840
5.009364,1775669482.633033,599616032711176066,-367,499,-840
5.014364,1775669482.633033,599616032711176066,-375,495,-839
5.019364,1775669482.633033,599616032711176066,-387,496,-842
5.024364,1775669482.633033,599616032711176066,-400,494,-846
5.029364,1775669482.633033,599616032711176066,-410,493,-844
5.034364,1775669482.633033,599616032711176066,-418,495,-844
5.039364,1775669482.633033,599616032711176066,-417,497,-838
5.044364,1775669482.633033,599616032711176066,-418,498,-839
5.049364,1775669482.633033,599616032711176066,-414,497,-836
5.054364,1775669482.633033,599616032711176066,-413,499,-837
5.059364,1775669482.633033,599616032711176066,-409,500,-837
5.064364,1775669482.633033,599616032711176066,-404,498,-834
5.069364,1775669482.633033,599616032711176066,-393,501,-832
5.074364,1775669482.633033,599616032711176066,-383,496,-835
5.079364,1775669482.633033,599616032711176066,-374,497,-838
5.084364,1775669482.633033,599616032711176066,-366,496,-842
5.089364,1775669482.633033,599616032711176066,-366,496,-846
5.094364,1775669482.633033,599616032711176066,-367,496,-841
5.099364,1775669482.633033,599616032711176066,-365,493,-837
5.104364,1775669482.633033,599616032711176066,-368,495,-835
5.109364,1775669482.633033,599616032711176066,-382,496,-839
5.110605,1775669482.814466,599616032887417490,-393,496,-839
5.115605,1775669482.814466,599616032887417490,-405,498,-844
5.120605,1775669482.814466,599616032887417490,-407,502,-845
5.125605,1775669482.814466,599616032887417490,-408,502,-848
5.130605,1775669482.814466,599616032887417490,-409,507,-845
5.135605,1775669482.814466,599616032887417490,-407,501,-844
5.140605,1775669482.814466,599616032887417490,-404,496,-839
5.145605,1775669482.814466,599616032887417490,-403,495,-848
5.150605,1775669482.814466,599616032887417490,-412,498,-868
5.155605,1775669482.814466,599616032887417490,-413,493,-807
5.160605,1775669482.814466,599616032887417490,-406,498,-813
5.165605,1775669482.814466,599616032887417490,-390,522,-850
5.170605,1775669482.814466,599616032887417490,-387,514,-852
5.175605,1775669482.814466,599616032887417490,-379,497,-845
5.180605,1775669482.814466,599616032887417490,-375,494,-839
5.185605,1775669482.814466,599616032887417490,-382,497,-839
5.190605,1775669482.814466,599616032887417490,-380,499,-839
5.195605,1775669482.814466,599616032887417490,-381,497,-837
5.200605,1775669482.814466,599616032887417490,-387,501,-837
5.205605,1775669482.814466,599616032887417490,-394,499,-838
5.210605,1775669482.814466,599616032887417490,-401,495,-842
5.215605,1775669482.814466,599616032887417490,-406,494,-841
5.220605,1775669482.814466,599616032887417490,-413,492,-838
5.225605,1775669482.814466,599616032887417490,-414,493,-842
5.230605,1775669482.814466,599616032887417490,-413,496,-842
5.235605,1775669482.814466,599616032887417490,-412,498,-841
5.240605,1775669482.814466,599616032887417490,-406,501,-839
5.245605,1775669482.814466,599616032887417490,-396,500,-832
5.250605,1775669482.814466,599616032887417490,-387,498,-828
5.255605,1775669482.814466,599616032887417490,-386,497,-833
5.260605,1775669482.814466,599616032887417490,-386,499,-837
5.265605,1775669482.814466,599616032887417490,-391,500,-837
5.270605,1775669482.814466,599616032887417490,-394,502,-839
5.275605,1775669482.814466,599616032887417490,-393,504,-840
5.280605,1775669482.814466,599616032887417490,-385,502,-841
5.285605,1775669482.814466,599616032887417490,-373,503,-839
5.286816,1775669482.994029,599616033063628448,-371,501,-837
5.291816,1775669482.994029,599616033063628448,-381,502,-841
5.296816,1775669482.994029,599616033063628448,-385,503,-841
5.301816,1775669482.994029,599616033063628448,-396,507,-841
5.306816,1775669482.994029,599616033063628448,-394,499,-840
5.311816,1775669482.994029,599616033063628448,-400,501,-846
5.316816,1775669482.994029,599616033063628448,-401,500,-849
5.321816,1775669482.994029,599616033063628448,-402,498,-846
5.326816,1775669482.994029,599616033063628448,-397,499,-841
5.331816,1775669482.994029,599616033063628448,-392,503,-843
5.336816,1775669482.994029,599616033063628448,-383,501,-843
5.341816,1775669482.994029,599616033063628448,-383,498,-838
5.346816,1775669482.994029,599616033063628448,-388,500,-840
5.351816,1775669482.994029,599616033063628448,-394,500,-840
5.356816,1775669482.994029,599616033063628448,-393,497,-846
5.361816,1775669482.994029,599616033063628448,-395,496,-844
5.366816,1775669482.994029,599616033063628448,-397,495,-844
5.371816,1775669482.994029,599616033063628448,-394,498,-847
5.376816,1775669482.994029,599616033063628448,-390,498,-845
5.381816,1775669482.994029,599616033063628448,-383,499,-844
5.386816,1775669482.994029,599616033063628448,-381,497,-842
5.391816,1775669482.994029,599616033063628448,-387,496,-844
5.396816,1775669482.994029,599616033063628448,-396,500,-842
5.401816,1775669482.994029,599616033063628448,-403,499,-840
5.406816,1775669482.994029,599616033063628448,-408,497,-841
5.411816,1775669482.994029,599616033063628448,-410,498,-838
5.416816,1775669482.994029,599616033063628448,-407,498,-838
5.421816,1775669482.994029,599616033063628448,-402,502,-846
5.426816,1775669482.994029,599616033063628448,-397,509,-848
5.431816,1775669482.994029,599616033063628448,-394,506,-845
5.436816,1775669482.994029,599616033063628448,-385,509,-839
5.441816,1775669482.994029,599616033063628448,-382,503,-835
5.446816,1775669482.994029,599616033063628448,-388,500,-833
5.451816,1775669482.994029,599616033063628448,-388,498,-835
5.456816,1775669482.994029,599616033063628448,-393,496,-840
5.461816,1775669482.994029,599616033063628448,-405,498,-840
5.463058,1775669483.173326,599616033239869872,-412,501,-841
5.468058,1775669483.173326,599616033239869872,-411,500,-842
5.473058,1775669483.173326,599616033239869872,-406,501,-835
5.478058,1775669483.173326,599616033239869872,-397,501,-836
5.483058,1775669483.173326,599616033239869872,-387,499,-838
5.488058,1775669483.173326,599616033239869872,-382,498,-838
5.493058,1775669483.173326,599616033239869872,-385,500,-840
5.498058,1775669483.173326,599616033239869872,-385,505,-836
5.503058,1775669483.173326,599616033239869872,-381,501,-832
5.508058,1775669483.173326,599616033239869872,-379,502,-835
5.513058,1775669483.173326,599616033239869872,-375,500,-841
5.518058,1775669483.173326,599616033239869872,-383,498,-841
5.523058,1775669483.173326,599616033239869872,-389,497,-839
5.528058,1775669483.173326,599616033239869872,-396,499,-843
5.533058,1775669483.173326,599616033239869872,-402,498,-843
5.538058,1775669483.173326,599616033239869872,-403,498,-839
5.543058,1775669483.173326,599616033239869872,-402,500,-841
5.548058,1775669483.173326,599616033239869872,-402,498,-838
5.553058,1775669483.173326,599616033239869872,-402,499,-839
5.558058,1775669483.173326,599616033239869872,-401,501,-837
5.563058,1775669483.173326,599616033239869872,-404,500,-840
5.568058,1775669483.173326,599616033239869872,-401,501,-841
5.573058,1775669483.173326,599616033239869872,-401,497,-841
5.578058,1775669483.173326,599616033239869872,-399,497,-836
5.583058,1775669483.173326,599616033239869872,-385,501,-828
5.588058,1775669483.173326,599616033239869872,-357,530,-832
5.593058,1775669483.173326,599616033239869872,-361,535,-857
5.598058,1775669483.173326,599616033239869872,-388,500,-860
5.603058,1775669483.173326,599616033239869872,-364,493,-839
5.608058,1775669483.173326,599616033239869872,-358,497,-847
5.613058,1775669483.173326,599616033239869872,-377,493,-866
5.618058,1775669483.173326,599616033239869872,-392,489,-870
5.623058,1775669483.173326,599616033239869872,-404,483,-854
5.628058,1775669483.173326,599616033239869872,-411,490,-846
5.633058,1775669483.173326,599616033239869872,-416,495,-845
5.638058,1775669483.173326,599616033239869872,-410,502,-838
5.639330,1775669483.307424,599616033416141850,-393,506,-840
5.644330,1775669483.307424,599616033416141850,-377,507,-840
5.649330,1775669483.307424,599616033416141850,-375,505,-837
5.654330,1775669483.307424,599616033416141850,-380,500,-837
5.659330,1775669483.307424,599616033416141850,-393,498,-842
5.664330,1775669483.307424,599616033416141850,-400,498,-840
5.669330,1775669483.307424,599616033416141850,-399,499,-844
5.674330,1775669483.307424,599616033416141850,-387,500,-849
5.679330,1775669483.307424,599616033416141850,-387,502,-851
5.684330,1775669483.307424,599616033416141850,-390,501,-849
5.689330,1775669483.307424,599616033416141850,-385,499,-848
5.694330,1775669483.307424,599616033416141850,-387,502,-845
5.699330,1775669483.307424,599616033416141850,-393,509,-843
5.704330,1775669483.307424,599616033416141850,-400,504,-841
5.709330,1775669483.307424,599616033416141850,-397,502,-843
5.714330,1775669483.307424,599616033416141850,-390,501,-840
5.719330,1775669483.307424,599616033416141850,-386,505,-841
5.724330,1775669483.307424,599616033416141850,-371,502,-840
5.729330,1775669483.307424,599616033416141850,-361,498,-840
5.734330,1775669483.307424,599616033416141850,-363,497,-840
5.739330,1775669483.307424,599616033416141850,-365,500,-843
5.744330,1775669483.307424,599616033416141850,-373,497,-843
5.749330,1775669483.307424,599616033416141850,-376,499,-844
5.754330,1775669483.307424,599616033416141850,-383,499,-842
5.759330,1775669483.307424,599616033416141850,-394,503,-841
5.764330,1775669483.307424,599616033416141850,-398,508,-839
5.769330,1775669483.307424,599616033416141850,-401,505,-839
5.774330,1775669483.307424,599616033416141850,-402,504,-838
5.779330,1775669483.307424,599616033416141850,-403,501,-836
5.784330,1775669483.307424,599616033416141850,-396,500,-840
5.789330,1775669483.307424,599616033416141850,-393,499,-844
5.794330,1775669483.307424,599616033416141850,-384,499,-855
5.799330,1775669483.307424,599616033416141850,-388,503,-872
5.804330,1775669483.307424,599616033416141850,-384,494,-823
5.809330,1775669483.307424,599616033416141850,-380,502,-823
5.814330,1775669483.307424,599616033416141850,-375,532,-841
5.815510,1775669483.487499,599616033592322270,-388,536,-844
5.820510,1775669483.487499,599616033592322270,-382,510,-849
5.825510,1775669483.487499,599616033592322270,-367,498,-829
5.830510,1775669483.487499,599616033592322270,-376,501,-826
5.835510,1775669483.487499,599616033592322270,-383,500,-839
5.840510,1775669483.487499,599616033592322270,-392,495,-843
5.845510,1775669483.487499,599616033592322270,-401,497,-844
5.850510,1775669483.487499,599616033592322270,-401,496,-851
5.855510,1775669483.487499,599616033592322270,-398,498,-849
5.860510,1775669483.487499,599616033592322270,-397,498,-844
5.865510,1775669483.487499,599616033592322270,-390,496,-839
5.870510,1775669483.487499,599616033592322270,-381,496,-837
5.875510,1775669483.487499,599616033592322270,-386,499,-833
5.880510,1775669483.487499,599616033592322270,-382,497,-832
5.885510,1775669483.487499,599616033592322270,-388,497,-834
5.890510,1775669483.487499,599616033592322270,-389,498,-839
5.895510,1775669483.487499,599616033592322270,-400,501,-843
5.900510,1775669483.487499,599616033592322270,-407,508,-848
5.905510,1775669483.487499,599616033592322270,-400,507,-846
5.910510,1775669483.487499,599616033592322270,-389,506,-844
5.915510,1775669483.487499,599616033592322270,-383,506,-844
5.920510,1775669483.487499,599616033592322270,-385,506,-847
5.925510,1775669483.487499,599616033592322270,-380,505,-846
5.930510,1775669483.487499,599616033592322270,-378,502,-847
5.935510,1775669483.487499,599616033592322270,-373,502,-846
5.940510,1775669483.487499,599616033592322270,-370,503,-842
5.945510,1775669483.487499,599616033592322270,-375,504,-840
5.950510,1775669483.487499,599616033592322270,-379,506,-843
5.955510,1775669483.487499,599616033592322270,-388,506,-839
5.960510,1775669483.487499,599616033592322270,-396,507,-844
5.965510,1775669483.487499,599616033592322270,-401,505,-842
5.970510,1775669483.487499,599616033592322270,-407,503,-846
5.975510,1775669483.487499,599616033592322270,-405,507,-847
5.980510,1775669483.487499,599616033592322270,-399,504,-848
5.985510,1775669483.487499,599616033592322270,-392,501,-846
5.990510,1775669483.487499,599616033592322270,-384,500,-839
5.991752,1775669483.668382,599616033768563704,-372,496,-841
5.996752,1775669483.668382,599616033768563704,-372,498,-837
6.001752,1775669483.668382,599616033768563704,-367,495,-841
6.006752,1775669483.668382,599616033768563704,-366,494,-843
6.011752,1775669483.668382,599616033768563704,-372,497,-848
6.016752,1775669483.668382,599616033768563704,-370,495,-848
6.021752,1775669483.668382,599616033768563704,-372,497,-855
6.026752,1775669483.668382,599616033768563704,-381,497,-854
6.031752,1775669483.668382,599616033768563704,-390,501,-856
6.036752,1775669483.668382,599616033768563704,-393,501,-848
6.041752,1775669483.668382,599616033768563704,-394,501,-847
6.046751,1775669483.668382,599616033768563704,-389,500,-842
6.051751,1775669483.668382,599616033768563704,-378,497,-837
6.056751,1775669483.668382,599616033768563704,-384,495,-839
6.061751,1775669483.668382,599616033768563704,-391,494,-843
6.066751,1775669483.668382,599616033768563704,-396,497,-845
6.071751,1775669483.668382,599616033768563704,-394,498,-847
6.076751,1775669483.668382,599616033768563704,-394,498,-844
6.081751,1775669483.668382,599616033768563704,-392,500,-842
6.086751,1775669483.668382,599616033768563704,-387,500,-839
6.091751,1775669483.668382,599616033768563704,-386,504,-836
6.096751,1775669483.668382,599616033768563704,-383,503,-832
6.101751,1775669483.668382,599616033768563704,-377,509,-826
6.106752,1775669483.668382,599616033768563704,-365,537,-834
6.111752,1775669483.668382,599616033768563704,-361,533,-859
6.116752,1775669483.668382,599616033768563704,-391,499,-870
6.121752,1775669483.668382,599616033768563704,-380,492,-838
6.126752,1775669483.668382,599616033768563704,-381,497,-851
6.131752,1775669483.668382,599616033768563704,-396,495,-862
6.136752,1775669483.668382,599616033768563704,-394,488,-857
6.141752,1775669483.668382,599616033768563704,-395,490,-846
6.146752,1775669483.668382,599616033768563704,-405,490,-844
6.151752,1775669483.668382,599616033768563704,-408,493,-840
6.156752,1775669483.668382,599616033768563704,-403,503,-837
6.161752,1775669483.668382,599616033768563704,-393,513,-840
6.166752,1775669483.668382,599616033768563704,-372,513,-839
6.168023,1775669483.846956,599616033944835682,-362,517,-841
6.173023,1775669483.846956,599616033944835682,-357,506,-840
6.178023,1775669483.846956,599616033944835682,-367,498,-841
6.183023,1775669483.846956,599616033944835682,-382,497,-841
6.188023,1775669483.846956,599616033944835682,-396,499,-842
6.193023,1775669483.846956,599616033944835682,-401,497,-846
6.198023,1775669483.846956,599616033944835682,-405,500,-849
6.203023,1775669483.846956,599616033944835682,-408,496,-845
6.208023,1775669483.846956,599616033944835682,-412,499,-843
6.213023,1775669483.846956,599616033944835682,-414,499,-844
6.218023,1775669483.846956,599616033944835682,-411,506,-846
6.223023,1775669483.846956,599616033944835682,-401,507,-840
6.228023,1775669483.846956,599616033944835682,-397,508,-843
6.233023,1775669483.846956,599616033944835682,-391,504,-841
6.238023,1775669483.846956,599616033944835682,-387,500,-837
6.243023,1775669483.846956,599616033944835682,-390,499,-836
6.248023,1775669483.846956,599616033944835682,-388,498,-837
6.253023,1775669483.846956,599616033944835682,-383,499,-837
6.258023,1775669483.846956,599616033944835682,-382,503,-835
6.263023,1775669483.846956,599616033944835682,-377,500,-835
6.268023,1775669483.846956,599616033944835682,-379,497,-834
6.273023,1775669483.846956,599616033944835682,-389,497,-837
6.278023,1775669483.846956,599616033944835682,-396,500,-834
6.283023,1775669483.846956,599616033944835682,-395,501,-836
6.288023,1775669483.846956,599616033944835682,-394,497,-835
6.293023,1775669483.846956,599616033944835682,-394,496,-837
6.298023,1775669483.846956,599616033944835682,-399,496,-839
6.303023,1775669483.846956,599616033944835682,-399,497,-845
6.308023,1775669483.846956,599616033944835682,-393,502,-852
6.313023,1775669483.846956,599616033944835682,-385,500,-856
6.318023,1775669483.846956,599616033944835682,-396,501,-864
6.323023,1775669483.846956,599616033944835682,-398,492,-815
6.328023,1775669483.846956,599616033944835682,-383,500,-820
6.333023,1775669483.846956,599616033944835682,-381,532,-852
6.338023,1775669483.846956,599616033944835682,-393,522,-858
6.343023,1775669483.846956,599616033944835682,-385,499,-853
6.344265,1775669484.027846,599616034121077122,-379,496,-834
6.349265,1775669484.027846,599616034121077122,-375,500,-837
6.354265,1775669484.027846,599616034121077122,-375,498,-841
6.359265,1775669484.027846,599616034121077122,-381,498,-833
6.364265,1775669484.027846,599616034121077122,-385,496,-839
6.369265,1775669484.027846,599616034121077122,-386,500,-845
6.374265,1775669484.027846,599616034121077122,-389,500,-844
6.379265,1775669484.027846,599616034121077122,-390,499,-839
6.384265,1775669484.027846,599616034121077122,-389,502,-829
6.389265,1775669484.027846,599616034121077122,-400,498,-828
6.394265,1775669484.027846,599616034121077122,-407,498,-831
6.399265,1775669484.027846,599616034121077122,-412,496,-826
6.404265,1775669484.027846,599616034121077122,-408,500,-829
6.409265,1775669484.027846,599616034121077122,-401,501,-833
6.414265,1775669484.027846,599616034121077122,-396,501,-837
6.419265,1775669484.027846,599616034121077122,-389,502,-842
6.424265,1775669484.027846,599616034121077122,-387,504,-841
6.429265,1775669484.027846,599616034121077122,-384,506,-838
6.434265,1775669484.027846,599616034121077122,-386,506,-839
6.439265,1775669484.027846,599616034121077122,-381,507,-834
6.444265,1775669484.027846,599616034121077122,-377,504,-840
6.449265,1775669484.027846,599616034121077122,-382,503,-843
6.454265,1775669484.027846,599616034121077122,-386,506,-850
6.459265,1775669484.027846,599616034121077122,-391,506,-853
6.464265,1775669484.027846,599616034121077122,-398,505,-849
6.469265,1775669484.027846,599616034121077122,-402,507,-846
6.474265,1775669484.027846,599616034121077122,-398,509,-845
6.479265,1775669484.027846,599616034121077122,-404,505,-841
6.484265,1775669484.027846,599616034121077122,-400,501,-841
6.489265,1775669484.027846,599616034121077122,-396,503,-839
6.494265,1775669484.027846,599616034121077122,-390,498,-835
6.499265,1775669484.027846,599616034121077122,-387,501,-834
6.504265,1775669484.027846,599616034121077122,-388,503,-833
6.509265,1775669484.027846,599616034121077122,-387,499,-831
6.514265,1775669484.027846,599616034121077122,-390,496,-829
6.519265,1775669484.027846,599616034121077122,-392,498,-836
6.520506,1775669484.207764,599616034297318572,-383,500,-837
6.525506,1775669484.207764,599616034297318572,-387,506,-840
6.530506,1775669484.207764,599616034297318572,-390,507,-843
6.535506,1775669484.207764,599616034297318572,-391,505,-844
6.540506,1775669484.207764,599616034297318572,-386,499,-838
6.545506,1775669484.207764,599616034297318572,-386,499,-839
6.550506,1775669484.207764,599616034297318572,-384,499,-838
6.555506,1775669484.207764,599616034297318572,-378,503,-843
6.560506,1775669484.207764,599616034297318572,-386,504,-845
6.565506,1775669484.207764,599616034297318572,-385,501,-842
6.570506,1775669484.207764,599616034297318572,-395,502,-844
6.575506,1775669484.207764,599616034297318572,-400,498,-840
6.580506,1775669484.207764,599616034297318572,-401,500,-839
6.585506,1775669484.207764,599616034297318572,-404,500,-835
6.590506,1775669484.207764,599616034297318572,-405,503,-838
6.595506,1775669484.207764,599616034297318572,-405,503,-842
6.600506,1775669484.207764,599616034297318572,-403,501,-845
6.605506,1775669484.207764,599616034297318572,-401,505,-842
6.610506,1775669484.207764,599616034297318572,-393,507,-837
6.615506,1775669484.207764,599616034297318572,-386,501,-824
6.620506,1775669484.207764,599616034297318572,-366,510,-819
6.625506,1775669484.207764,599616034297318572,-357,540,-835
6.630506,1775669484.207764,599616034297318572,-387,514,-859
6.635506,1775669484.207764,599616034297318572,-395,492,-832
6.640506,1775669484.207764,599616034297318572,-379,497,-831
6.645506,1775669484.207764,599616034297318572,-380,497,-847
6.650506,1775669484.207764,599616034297318572,-384,491,-859
6.655506,1775669484.207764,599616034297318572,-388,489,-856
6.660506,1775669484.207764,599616034297318572,-405,490,-848
6.665506,1775669484.207764,599616034297318572,-411,492,-843
6.670506,1775669484.207764,599616034297318572,-409,499,-843
6.675506,1775669484.207764,599616034297318572,-402,509,-842
6.680506,1775669484.207764,599616034297318572,-390,518,-842
6.685506,1775669484.207764,599616034297318572,-379,516,-841
6.690506,1775669484.207764,599616034297318572,-375,510,-839
6.695506,1775669484.207764,599616034297318572,-372,504,-839
6.696717,1775669484.388137,599616034473529530,-383,498,-836
6.701717,1775669484.388137,599616034473529530,-393,502,-841
6.706717,1775669484.388137,599616034473529530,-400,504,-837
6.711717,1775669484.388137,599616034473529530,-401,500,-841
6.716717,1775669484.388137,599616034473529530,-403,496,-843
6.721717,1775669484.388137,599616034473529530,-404,500,-844
6.726717,1775669484.388137,599616034473529530,-405,499,-841
6.731717,1775669484.388137,599616034473529530,-404,501,-840
6.736717,1775669484.388137,599616034473529530,-402,502,-839
6.741717,1775669484.388137,599616034473529530,-396,504,-838
6.746717,1775669484.388137,599616034473529530,-399,502,-835
6.751717,1775669484.388137,599616034473529530,-400,503,-837
6.756717,1775669484.388137,599616034473529530,-398,505,-835
6.761717,1775669484.388137,599616034473529530,-397,511,-834
6.766717,1775669484.388137,599616034473529530,-396,515,-838
6.771717,1775669484.388137,599616034473529530,-393,510,-840
6.776717,1775669484.388137,599616034473529530,-391,505,-839
6.781717,1775669484.388137,599616034473529530,-386,500,-838
6.786717,1775669484.388137,599616034473529530,-379,499,-838
6.791717,1775669484.388137,599616034473529530,-372,499,-838
6.796717,1775669484.388137,599616034473529530,-382,499,-838
6.801717,1775669484.388137,599616034473529530,-385,499,-842
6.806717,1775669484.388137,599616034473529530,-388,495,-843
6.811717,1775669484.388137,599616034473529530,-390,496,-837
6.816717,1775669484.388137,599616034473529530,-386,500,-835
6.821717,1775669484.388137,599616034473529530,-385,501,-838
6.826717,1775669484.388137,599616034473529530,-384,503,-839
6.831717,1775669484.388137,599616034473529530,-389,500,-844
6.836717,1775669484.388137,599616034473529530,-406,502,-846
6.841717,1775669484.388137,599616034473529530,-414,494,-796
6.846717,1775669484.388137,599616034473529530,-416,506,-829
6.851717,1775669484.388137,599616034473529530,-408,513,-859
6.856717,1775669484.388137,599616034473529530,-398,499,-844
6.861717,1775669484.388137,599616034473529530,-383,496,-837
6.866717,1775669484.388137,599616034473529530,-365,501,-835
6.871717,1775669484.388137,599616034473529530,-364,506,-837
6.872867,1775669484.569654,599616034649679406,-368,507,-833
6.877867,1775669484.569654,599616034649679406,-376,507,-835
6.882867,1775669484.569654,599616034649679406,-380,509,-841
6.887867,1775669484.569654,599616034649679406,-383,511,-844
6.892867,1775669484.569654,599616034649679406,-385,514,-837
6.897867,1775669484.569654,599616034649679406,-386,512,-832
6.902867,1775669484.569654,599616034649679406,-390,509,-832
6.907867,1775669484.569654,599616034649679406,-396,510,-839
6.912867,1775669484.569654,599616034649679406,-398,506,-838
6.917867,1775669484.569654,599616034649679406,-401,504,-839
6.922867,1775669484.569654,599616034649679406,-400,503,-840
6.927867,1775669484.569654,599616034649679406,-391,500,-837
6.932867,1775669484.569654,599616034649679406,-387,501,-841
6.937867,1775669484.569654,599616034649679406,-384,504,-836
6.942867,1775669484.569654,599616034649679406,-387,507,-837
6.947867,1775669484.569654,599616034649679406,-396,502,-842
6.952867,1775669484.569654,599616034649679406,-400,501,-847
6.957867,1775669484.569654,599616034649679406,-398,503,-845
6.962867,1775669484.569654,599616034649679406,-398,504,-840
6.967867,1775669484.569654,599616034649679406,-400,507,-840
6.972867,1775669484.569654,599616034649679406,-398,507,-836
6.977867,1775669484.569654,599616034649679406,-391,504,-835
6.982867,1775669484.569654,599616034649679406,-392,500,-835
6.987867,1775669484.569654,599616034649679406,-393,502,-838
6.992867,1775669484.569654,599616034649679406,-389,499,-841
6.997867,1775669484.569654,599616034649679406,-390,498,-841
7.002867,1775669484.569654,599616034649679406,-394,499,-839
7.007867,1775669484.569654,599616034649679406,-396,500,-836
7.012867,1775669484.569654,599616034649679406,-400,502,-836
7.017867,1775669484.569654,599616034649679406,-399,503,-839
7.022867,1775669484.569654,599616034649679406,-397,506,-838
7.027867,1775669484.569654,599616034649679406,-396,502,-838
7.032867,1775669484.569654,599616034649679406,-401,500,-839
7.037867,1775669484.569654,599616034649679406,-400,502,-842
7.042867,1775669484.569654,599616034649679406,-401,502,-843
7.047867,1775669484.569654,599616034649679406,-397,507,-844
7.049109,1775669484.748318,599616034825920850,-383,510,-841
7.054109,1775669484.748318,599616034825920850,-380,509,-839
7.059109,1775669484.748318,599616034825920850,-381,501,-838
7.064109,1775669484.748318,599616034825920850,-390,505,-838
7.069109,1775669484.748318,599616034825920850,-390,506,-835
7.074109,1775669484.748318,599616034825920850,-394,507,-835
7.079109,1775669484.748318,599616034825920850,-397,505,-835
7.084109,1775669484.748318,599616034825920850,-397,506,-840
7.089109,1775669484.748318,599616034825920850,-398,511,-840
7.094109,1775669484.748318,599616034825920850,-401,509,-836
7.099109,1775669484.748318,599616034825920850,-399,507,-834
7.104109,1775669484.748318,599616034825920850,-397,505,-836
7.109109,1775669484.748318,599616034825920850,-387,503,-836
7.114109,1775669484.748318,599616034825920850,-384,499,-838
7.119109,1775669484.748318,599616034825920850,-392,499,-843
7.124109,1775669484.748318,599616034825920850,-400,500,-837
7.129109,1775669484.748318,599616034825920850,-407,501,-841
7.134109,1775669484.748318,599616034825920850,-414,504,-836
7.139109,1775669484.748318,599616034825920850,-417,503,-830
7.144109,1775669484.748318,599616034825920850,-417,506,-830
7.149109,1775669484.748318,599616034825920850,-412,512,-832
7.154109,1775669484.748318,599616034825920850,-405,515,-834
7.159109,1775669484.748318,599616034825920850,-394,509,-837
7.164109,1775669484.748318,599616034825920850,-381,507,-838
7.169109,1775669484.748318,599616034825920850,-375,505,-839
7.174109,1775669484.748318,599616034825920850,-375,503,-839
7.179109,1775669484.748318,599616034825920850,-375,504,-840
7.184109,1775669484.748318,599616034825920850,-376,502,-839
7.189109,1775669484.748318,599616034825920850,-380,503,-840
7.194109,1775669484.748318,599616034825920850,-385,502,-843
7.199109,1775669484.748318,599616034825920850,-391,503,-842
7.204109,1775669484.748318,599616034825920850,-390,505,-843
7.209109,1775669484.748318,599616034825920850,-392,507,-836
7.214109,1775669484.748318,599616034825920850,-401,508,-835
7.219109,1775669484.748318,599616034825920850,-405,504,-838
7.224109,1775669484.748318,599616034825920850,-405,507,-838
7.225289,1775669484.931232,599616035002101280,-402,506,-834
7.230289,1775669484.931232,599616035002101280,-394,499,-840
7.235289,1775669484.931232,599616035002101280,-396,499,-842
7.240289,1775669484.931232,599616035002101280,-397,499,-839
7.245289,1775669484.931232,599616035002101280,-394,501,-835
7.250289,1775669484.931232,599616035002101280,-391,501,-827
7.255289,1775669484.931232,599616035002101280,-386,503,-815
7.260289,1775669484.931232,599616035002101280,-368,514,-810
7.265289,1775669484.931232,599616035002101280,-376,543,-836
7.270289,1775669484.931232,599616035002101280,-400,523,-849
7.275289,1775669484.931232,599616035002101280,-393,507,-832
7.280289,1775669484.931232,599616035002101280,-383,513,-840
7.285289,1775669484.931232,599616035002101280,-386,501,-849
7.290289,1775669484.931232,599616035002101280,-392,493,-865
7.295289,1775669484.931232,599616035002101280,-400,490,-850
7.300289,1775669484.931232,599616035002101280,-404,492,-843
7.305289,1775669484.931232,599616035002101280,-403,495,-847
7.310289,1775669484.931232,599616035002101280,-392,511,-844
7.315289,1775669484.931232,599616035002101280,-379,518,-846
7.320289,1775669484.931232,599616035002101280,-378,517,-840
7.325289,1775669484.931232,599616035002101280,-378,519,-840
7.330289,1775669484.931232,599616035002101280,-386,519,-840
7.335289,1775669484.931232,599616035002101280,-393,516,-837
7.340289,1775669484.931232,599616035002101280,-401,509,-840
7.345289,1775669484.931232,599616035002101280,-405,508,-838
7.350289,1775669484.931232,599616035002101280,-403,503,-841
7.355289,1775669484.931232,599616035002101280,-403,505,-841
7.360289,1775669484.931232,599616035002101280,-402,501,-838
7.365289,1775669484.931232,599616035002101280,-405,505,-839
7.370289,1775669484.931232,599616035002101280,-407,506,-846
7.375289,1775669484.931232,599616035002101280,-403,502,-843
7.380289,1775669484.931232,599616035002101280,-397,503,-844
7.385289,1775669484.931232,599616035002101280,-386,499,-837
7.390289,1775669484.931232,599616035002101280,-372,503,-839
7.395289,1775669484.931232,599616035002101280,-364,501,-839
7.400289,1775669484.931232,599616035002101280,-374,503,-844
7.401592,1775669485.108214,599616035178403770,-380,506,-836
7.406592,1775669485.108214,599616035178403770,-386,504,-843
7.411592,1775669485.108214,599616035178403770,-396,503,-842
7.416592,1775669485.108214,599616035178403770,-395,504,-836
7.421592,1775669485.108214,599616035178403770,-399,504,-836
7.426592,1775669485.108214,599616035178403770,-405,504,-837
7.431592,1775669485.108214,599616035178403770,-407,504,-841
7.436592,1775669485.108214,599616035178403770,-406,502,-835
7.441592,1775669485.108214,599616035178403770,-406,502,-832
7.446591,1775669485.108214,599616035178403770,-400,500,-834
7.451591,1775669485.108214,599616035178403770,-398,502,-834
7.456591,1775669485.108214,599616035178403770,-389,500,-835
7.461591,1775669485.108214,599616035178403770,-387,502,-836
7.466591,1775669485.108214,599616035178403770,-375,503,-841
7.471591,1775669485.108214,599616035178403770,-372,508,-842
7.476591,1775669485.108214,599616035178403770,-386,513,-858
7.481591,1775669485.108214,599616035178403770,-394,508,-787
7.486591,1775669485.108214,599616035178403770,-411,507,-810
7.491591,1775669485.108214,599616035178403770,-405,521,-847
7.496591,1775669485.108214,599616035178403770,-406,507,-832
7.501591,1775669485.108214,599616035178403770,-401,505,-833
7.506591,1775669485.108214,599616035178403770,-392,507,-836
7.511591,1775669485.108214,599616035178403770,-391,504,-834
7.516592,1775669485.108214,599616035178403770,-387,503,-836
7.521592,1775669485.108214,599616035178403770,-385,501,-834
7.526592,1775669485.108214,599616035178403770,-388,498,-834
7.531592,1775669485.108214,599616035178403770,-393,499,-837
7.536592,1775669485.108214,599616035178403770,-403,497,-835
7.541592,1775669485.108214,599616035178403770,-407,496,-832
7.546592,1775669485.108214,599616035178403770,-408,498,-829
7.551592,1775669485.108214,599616035178403770,-408,500,-830
7.556592,1775669485.108214,599616035178403770,-411,505,-828
7.561592,1775669485.108214,599616035178403770,-408,509,-832
7.566592,1775669485.108214,599616035178403770,-403,513,-834
7.571591,1775669485.108214,599616035178403770,-392,505,-833
7.576591,1775669485.108214,599616035178403770,-386,502,-835
7.577864,1775669485.288138,599616035354675728,-379,503,-843
7.582864,1775669485.288138,599616035354675728,-391,503,-837
7.587864,1775669485.288138,599616035354675728,-397,509,-838
7.592864,1775669485.288138,599616035354675728,-404,507,-841
7.597864,1775669485.288138,599616035354675728,-404,508,-839
7.602864,1775669485.288138,599616035354675728,-403,507,-841
7.607864,1775669485.288138,599616035354675728,-400,504,-840
7.612864,1775669485.288138,599616035354675728,-394,506,-841
7.617864,1775669485.288138,599616035354675728,-392,504,-835
7.622864,1775669485.288138,599616035354675728,-398,508,-834
7.627864,1775669485.288138,599616035354675728,-401,506,-836
7.632864,1775669485.288138,599616035354675728,-405,505,-840
7.637864,1775669485.288138,599616035354675728,-401,506,-842
7.642864,1775669485.288138,599616035354675728,-400,510,-843
7.647864,1775669485.288138,599616035354675728,-399,511,-841
7.652864,1775669485.288138,599616035354675728,-397,507,-840
7.657863,1775669485.288138,599616035354675728,-401,502,-839
7.662863,1775669485.288138,599616035354675728,-408,502,-840
7.667863,1775669485.288138,599616035354675728,-407,500,-835
7.672863,1775669485.288138,599616035354675728,-409,503,-842
7.677863,1775669485.288138,599616035354675728,-406,508,-838
7.682863,1775669485.288138,599616035354675728,-399,508,-835
7.687863,1775669485.288138,599616035354675728,-394,507,-835
7.692864,1775669485.288138,599616035354675728,-392,505,-838
7.697864,1775669485.288138,599616035354675728,-391,510,-837
7.702864,1775669485.288138,599616035354675728,-391,509,-836
7.707864,1775669485.288138,599616035354675728,-393,508,-835
7.712864,1775669485.288138,599616035354675728,-400,500,-837
7.717864,1775669485.288138,599616035354675728,-400,507,-836
7.722864,1775669485.288138,599616035354675728,-403,504,-838
7.727864,1775669485.288138,599616035354675728,-394,510,-834
7.732864,1775669485.288138,599616035354675728,-392,507,-836
7.737864,1775669485.288138,599616035354675728,-389,502,-832
7.742864,1775669485.288138,599616035354675728,-386,505,-831
7.747864,1775669485.288138,599616035354675728,-387,504,-830
7.752864,1775669485.288138,599616035354675728,-388,504,-832
7.754105,1775669485.423432,599616035530917168,-383,505,-840
7.759105,1775669485.423432,599616035530917168,-386,506,-834
7.764105,1775669485.423432,599616035530917168,-391,505,-838
7.769105,1775669485.423432,599616035530917168,-393,509,-837
7.774105,1775669485.423432,599616035530917168,-399,510,-838
7.779105,1775669485.423432,599616035530917168,-399,509,-833
7.784105,1775669485.423432,599616035530917168,-403,509,-831
7.789105,1775669485.423432,599616035530917168,-402,509,-835
7.794105,1775669485.423432,599616035530917168,-403,506,-837
7.799105,1775669485.423432,599616035530917168,-401,498,-837
7.804105,1775669485.423432,599616035530917168,-403,501,-841
7.809105,1775669485.423432,599616035530917168,-402,501,-839
7.814105,1775669485.423432,599616035530917168,-400,504,-836
7.819105,1775669485.423432,599616035530917168,-396,506,-834
7.824105,1775669485.423432,599616035530917168,-386,509,-832
7.829105,1775669485.423432,599616035530917168,-377,509,-837
7.834105,1775669485.423432,599616035530917168,-375,506,-838
7.839105,1775669485.423432,599616035530917168,-371,510,-840
7.844105,1775669485.423432,599616035530917168,-376,511,-839
7.849105,1775669485.423432,599616035530917168,-386,509,-840
7.854105,1775669485.423432,599616035530917168,-394,505,-839
7.859105,1775669485.423432,599616035530917168,-398,507,-838
7.864105,1775669485.423432,599616035530917168,-403,507,-838
7.869105,1775669485.423432,599616035530917168,-407,507,-840
7.874105,1775669485.423432,599616035530917168,-411,507,-840
7.879105,1775669485.423432,599616035530917168,-413,512,-839
7.884105,1775669485.423432,599616035530917168,-412,510,-836
7.889105,1775669485.423432,599616035530917168,-404,502,-833
7.894105,1775669485.423432,599616035530917168,-398,499,-834
7.899105,1775669485.423432,599616035530917168,-396,504,-839
7.904105,1775669485.423432,599616035530917168,-395,506,-840
7.909105,1775669485.423432,599616035530917168,-399,504,-836
7.914105,1775669485.423432,599616035530917168,-400,507,-835
7.919105,1775669485.423432,599616035530917168,-402,508,-836
7.924105,1775669485.423432,599616035530917168,-403,512,-837
7.929105,1775669485.423432,599616035530917168,-401,512,-838
7.930408,1775669485.648218,599616035707219674,-397,511,-835
7.935408,1775669485.648218,599616035707219674,-398,504,-842
7.940408,1775669485.648218,599616035707219674,-399,505,-839
7.945408,1775669485.648218,599616035707219674,-398,503,-837
7.950408,1775669485.648218,599616035707219674,-394,503,-836
7.955408,1775669485.648218,599616035707219674,-391,500,-834
7.960407,1775669485.648218,599616035707219674,-393,496,-837
7.965407,1775669485.648218,599616035707219674,-402,494,-839
7.970407,1775669485.648218,599616035707219674,-398,496,-838
7.975407,1775669485.648218,599616035707219674,-402,497,-838
7.980407,1775669485.648218,599616035707219674,-401,500,-843
7.985407,1775669485.648218,599616035707219674,-397,501,-839
7.990407,1775669485.648218,599616035707219674,-392,502,-838
7.995407,1775669485.648218,599616035707219674,-386,509,-840
8.000407,1775669485.648218,599616035707219674,-387,506,-835
8.005407,1775669485.648218,599616035707219674,-390,506,-834
8.010407,1775669485.648218,599616035707219674,-396,506,-835
8.015407,1775669485.648218,599616035707219674,-406,506,-833
8.020407,1775669485.648218,599616035707219674,-408,510,-835
8.025407,1775669485.648218,599616035707219674,-409,502,-825
8.030407,1775669485.648218,599616035707219674,-409,505,-825
8.035407,1775669485.648218,599616035707219674,-406,502,-830
8.040407,1775669485.648218,599616035707219674,-404,498,-830
8.045408,1775669485.648218,599616035707219674,-397,502,-830
8.050408,1775669485.648218,599616035707219674,-396,503,-837
8.055408,1775669485.648218,599616035707219674,-396,506,-839
8.060408,1775669485.648218,599616035707219674,-395,505,-841
8.065408,1775669485.648218,599616035707219674,-400,511,-836
8.070408,1775669485.648218,599616035707219674,-398,509,-837
8.075408,1775669485.648218,599616035707219674,-396,506,-837
8.080408,1775669485.648218,599616035707219674,-395,502,-835
8.085407,1775669485.648218,599616035707219674,-396,502,-834
8.090407,1775669485.648218,599616035707219674,-398,503,-833
8.095407,1775669485.648218,599616035707219674,-404,507,-836
8.100407,1775669485.648218,599616035707219674,-403,510,-842
8.105407,1775669485.648218,599616035707219674,-408,513,-843
8.106649,1775669485.784322,599616035883461104,-409,507,-840
8.111649,1775669485.784322,599616035883461104,-408,503,-837
8.116649,1775669485.784322,599616035883461104,-411,496,-826
8.121649,1775669485.784322,599616035883461104,-407,497,-818
8.126649,1775669485.784322,599616035883461104,-389,513,-813
8.131649,1775669485.784322,599616035883461104,-382,548,-838
8.136649,1775669485.784322,599616035883461104,-408,512,-850
8.141649,1775669485.784322,599616035883461104,-402,501,-815
8.146649,1775669485.784322,599616035883461104,-380,517,-839
8.151649,1775669485.784322,599616035883461104,-378,503,-852
8.156649,1775669485.784322,599616035883461104,-373,489,-841
8.161649,1775669485.784322,599616035883461104,-384,489,-835
8.166649,1775669485.784322,599616035883461104,-394,493,-837
8.171649,1775669485.784322,599616035883461104,-395,495,-840
8.176649,1775669485.784322,599616035883461104,-396,502,-844
8.181649,1775669485.784322,599616035883461104,-397,505,-841
8.186649,1775669485.784322,599616035883461104,-398,504,-838
8.191649,1775669485.784322,599616035883461104,-403,504,-834
8.196649,1775669485.784322,599616035883461104,-409,505,-836
8.201649,1775669485.784322,599616035883461104,-410,507,-838
8.206649,1775669485.784322,599616035883461104,-410,505,-838
8.211649,1775669485.784322,599616035883461104,-408,507,-833
8.216649,1775669485.784322,599616035883461104,-408,511,-836
8.221649,1775669485.784322,599616035883461104,-407,508,-840
8.226649,1775669485.784322,599616035883461104,-406,502,-837
8.231649,1775669485.784322,599616035883461104,-404,505,-832
8.236649,1775669485.784322,599616035883461104,-405,500,-830
8.241649,1775669485.784322,599616035883461104,-406,499,-835
8.246649,1775669485.784322,599616035883461104,-402,506,-839
8.251649,1775669485.784322,599616035883461104,-400,510,-842
8.256649,1775669485.784322,599616035883461104,-398,509,-842
8.261649,1775669485.784322,599616035883461104,-393,507,-837
8.266649,1775669485.784322,599616035883461104,-392,506,-839
8.271649,1775669485.784322,599616035883461104,-398,503,-839
8.276649,1775669485.784322,599616035883461104,-396,501,-837
8.281649,1775669485.784322,599616035883461104,-396,502,-836
8.282860,1775669486.008518,599616036059672062,-395,505,-835
8.287860,1775669486.008518,599616036059672062,-393,505,-839
8.292860,1775669486.008518,599616036059672062,-391,504,-836
8.297860,1775669486.008518,599616036059672062,-396,505,-837
8.302860,1775669486.008518,599616036059672062,-399,503,-834
8.307860,1775669486.008518,599616036059672062,-405,507,-837
8.312860,1775669486.008518,599616036059672062,-406,508,-839
8.317860,1775669486.008518,599616036059672062,-406,512,-846
8.322860,1775669486.008518,599616036059672062,-406,509,-844
8.327860,1775669486.008518,599616036059672062,-403,512,-844
8.332860,1775669486.008518,599616036059672062,-395,516,-840
8.337860,1775669486.008518,599616036059672062,-392,516,-843
8.342860,1775669486.008518,599616036059672062,-407,503,-844
8.347860,1775669486.008518,599616036059672062,-399,496,-781
8.352860,1775669486.008518,599616036059672062,-396,511,-840
8.357860,1775669486.008518,599616036059672062,-390,521,-862
8.362860,1775669486.008518,599616036059672062,-389,503,-832
8.367860,1775669486.008518,599616036059672062,-383,500,-826
8.372860,1775669486.008518,599616036059672062,-380,504,-830
8.377860,1775669486.008518,599616036059672062,-393,506,-831
8.382860,1775669486.008518,599616036059672062,-398,506,-835
8.387860,1775669486.008518,599616036059672062,-403,503,-834
8.392860,1775669486.008518,599616036059672062,-406,500,-828
8.397860,1775669486.008518,599616036059672062,-407,501,-834
8.402860,1775669486.008518,599616036059672062,-409,503,-831
8.407860,1775669486.008518,599616036059672062,-411,501,-834
8.412860,1775669486.008518,599616036059672062,-413,504,-836
8.417860,1775669486.008518,599616036059672062,-410,502,-838
8.422860,1775669486.008518,599616036059672062,-410,503,-837
8.427860,1775669486.008518,599616036059672062,-407,505,-834
8.432860,1775669486.008518,599616036059672062,-402,501,-832
8.437860,1775669486.008518,599616036059672062,-398,500,-832
8.442860,1775669486.008518,599616036059672062,-396,506,-839
8.447860,1775669486.008518,599616036059672062,-400,502,-840
8.452860,1775669486.008518,599616036059672062,-402,502,-841
8.457860,1775669486.008518,599616036059672062,-406,502,-840
8.458949,1775669486.143221,599616036235760918,-406,501,-842
8.463949,1775669486.143221,599616036235760918,-403,500,-834
8.468949,1775669486.143221,599616036235760918,-404,498,-832
8.473949,1775669486.143221,599616036235760918,-405,501,-833
8.478949,1775669486.143221,599616036235760918,-406,500,-834
8.483949,1775669486.143221,599616036235760918,-409,501,-837
8.488949,1775669486.143221,599616036235760918,-409,502,-838
8.493949,1775669486.143221,599616036235760918,-410,501,-838
8.498949,1775669486.143221,599616036235760918,-408,499,-838
8.503949,1775669486.143221,599616036235760918,-402,500,-835
8.508949,1775669486.143221,599616036235760918,-395,499,-834
8.513949,1775669486.143221,599616036235760918,-395,509,-844
8.518949,1775669486.143221,599616036235760918,-385,495,-834
8.523949,1775669486.143221,599616036235760918,-390,495,-840
8.528949,1775669486.143221,599616036235760918,-392,502,-833
8.533949,1775669486.143221,599616036235760918,-397,502,-829
8.538949,1775669486.143221,599616036235760918,-402,505,-833
8.543949,1775669486.143221,599616036235760918,-406,513,-829
8.548949,1775669486.143221,599616036235760918,-408,512,-833
8.553949,1775669486.143221,599616036235760918,-411,506,-834
8.558949,1775669486.143221,599616036235760918,-411,500,-835
8.563949,1775669486.143221,599616036235760918,-414,498,-836
8.568949,1775669486.143221,599616036235760918,-410,498,-839
8.573949,1775669486.143221,599616036235760918,-405,497,-840
8.578949,1775669486.143221,599616036235760918,-397,498,-844
8.583949,1775669486.143221,599616036235760918,-396,504,-842
8.588949,1775669486.143221,599616036235760918,-397,508,-840
8.593949,1775669486.143221,599616036235760918,-399,517,-840
8.598949,1775669486.143221,599616036235760918,-401,518,-839
8.603949,1775669486.143221,599616036235760918,-408,513,-832
8.608949,1775669486.143221,599616036235760918,-408,511,-836
8.613949,1775669486.143221,599616036235760918,-412,509,-836
8.618949,1775669486.143221,599616036235760918,-414,508,-835
8.623949,1775669486.143221,599616036235760918,-414,509,-842
8.628949,1775669486.143221,599616036235760918,-415,507,-837
8.633949,1775669486.143221,599616036235760918,-417,503,-837
8.635160,1775669486.324328,599616036411971854,-413,505,-833
8.640160,1775669486.324328,599616036411971854,-411,505,-834
8.645160,1775669486.324328,599616036411971854,-410,511,-828
8.650160,1775669486.324328,599616036411971854,-407,509,-830
8.655160,1775669486.324328,599616036411971854,-407,505,-834
8.660160,1775669486.324328,599616036411971854,-404,505,-836
8.665160,1775669486.324328,599616036411971854,-396,501,-833
8.670160,1775669486.324328,599616036411971854,-396,500,-833
8.675160,1775669486.324328,599616036411971854,-397,500,-834
8.680160,1775669486.324328,599616036411971854,-395,495,-834
8.685160,1775669486.324328,599616036411971854,-393,498,-833
8.690160,1775669486.324328,599616036411971854,-391,500,-839
8.695160,1775669486.324328,599616036411971854,-397,503,-841
8.700160,1775669486.324328,599616036411971854,-406,507,-840
8.705160,1775669486.324328,599616036411971854,-406,502,-839
8.710160,1775669486.324328,599616036411971854,-409,501,-837
8.715160,1775669486.324328,599616036411971854,-408,498,-837
8.720160,1775669486.324328,599616036411971854,-409,499,-839
8.725160,1775669486.324328,599616036411971854,-413,497,-837
8.730160,1775669486.324328,599616036411971854,-411,498,-837
8.735160,1775669486.324328,599616036411971854,-412,500,-839
8.740160,1775669486.324328,599616036411971854,-408,501,-835
8.745160,1775669486.324328,599616036411971854,-405,503,-831
8.750160,1775669486.324328,599616036411971854,-401,501,-831
8.755160,1775669486.324328,599616036411971854,-392,505,-831
8.760160,1775669486.324328,599616036411971854,-389,505,-829
8.765160,1775669486.324328,599616036411971854,-390,505,-832
8.770160,1775669486.324328,599616036411971854,-395,507,-836
8.775160,1775669486.324328,599616036411971854,-402,505,-838
8.780160,1775669486.324328,599616036411971854,-404,501,-841
8.785160,1775669486.324328,599616036411971854,-405,502,-840
8.790160,1775669486.324328,599616036411971854,-411,504,-838
8.795160,1775669486.324328,599616036411971854,-413,504,-840
8.800160,1775669486.324328,599616036411971854,-413,503,-837
8.805160,1775669486.324328,599616036411971854,-414,500,-834
8.810160,1775669486.324328,599616036411971854,-410,500,-836
8.811432,1775669486.503914,599616036588243806,-415,499,-844
8.816432,1775669486.503914,599616036588243806,-410,501,-834
8.821432,1775669486.503914,599616036588243806,-404,509,-825
8.826432,1775669486.503914,599616036588243806,-396,521,-832
8.831432,1775669486.503914,599616036588243806,-400,516,-838
8.836432,1775669486.503914,599616036588243806,-404,510,-834
8.841432,1775669486.503914,599616036588243806,-403,505,-835
8.846432,1775669486.503914,599616036588243806,-402,501,-829
8.851432,1775669486.503914,599616036588243806,-400,500,-827
8.856432,1775669486.503914,599616036588243806,-407,501,-831
8.861432,1775669486.503914,599616036588243806,-409,500,-833
8.866432,1775669486.503914,599616036588243806,-414,496,-834
8.871432,1775669486.503914,599616036588243806,-414,496,-838
8.876432,1775669486.503914,599616036588243806,-414,493,-835
8.881432,1775669486.503914,599616036588243806,-416,496,-837
8.886432,1775669486.503914,599616036588243806,-414,497,-838
8.891432,1775669486.503914,599616036588243806,-412,494,-832
8.896432,1775669486.503914,599616036588243806,-412,495,-831
8.901432,1775669486.503914,599616036588243806,-408,498,-828
8.906432,1775669486.503914,599616036588243806,-410,502,-832
8.911432,1775669486.503914,599616036588243806,-409,500,-829
8.916432,1775669486.503914,599616036588243806,-405,502,-831
8.921432,1775669486.503914,599616036588243806,-402,503,-835
8.926432,1775669486.503914,599616036588243806,-398,509,-834
8.931432,1775669486.503914,599616036588243806,-399,510,-833
8.936432,1775669486.503914,599616036588243806,-402,510,-833
8.941432,1775669486.503914,599616036588243806,-406,502,-834
8.946432,1775669486.503914,599616036588243806,-412,502,-836
8.951432,1775669486.503914,599616036588243806,-413,499,-839
8.956432,1775669486.503914,599616036588243806,-416,499,-839
8.961432,1775669486.503914,599616036588243806,-416,496,-837
8.966432,1775669486.503914,599616036588243806,-416,497,-834
8.971432,1775669486.503914,599616036588243806,-412,498,-830
8.976432,1775669486.503914,599616036588243806,-413,500,-833
8.981432,1775669486.503914,599616036588243806,-412,509,-833
8.986432,1775669486.503914,599616036588243806,-409,509,-834
8.987704,1775669486.683089,599616036764515774,-406,508,-833
8.992704,1775669486.683089,599616036764515774,-404,504,-829
8.997704,1775669486.683089,599616036764515774,-400,504,-826
9.002704,1775669486.683089,599616036764515774,-402,507,-832
9.007704,1775669486.683089,599616036764515774,-407,513,-835
9.012704,1775669486.683089,599616036764515774,-413,507,-831
9.017704,1775669486.683089,599616036764515774,-416,505,-834
9.022704,1775669486.683089,599616036764515774,-417,507,-838
9.027704,1775669486.683089,599616036764515774,-415,500,-833
9.032704,1775669486.683089,599616036764515774,-414,499,-832
9.037704,1775669486.683089,599616036764515774,-412,496,-823
9.042704,1775669486.683089,599616036764515774,-403,502,-811
9.047704,1775669486.683089,599616036764515774,-393,522,-816
9.052703,1775669486.683089,599616036764515774,-403,509,-843
9.057703,1775669486.683089,599616036764515774,-408,499,-817
9.062703,1775669486.683089,599616036764515774,-394,507,-832
9.067703,1775669486.683089,599616036764515774,-394,505,-840
9.072703,1775669486.683089,599616036764515774,-402,496,-855
9.077703,1775669486.683089,599616036764515774,-405,491,-848
9.082703,1775669486.683089,599616036764515774,-411,490,-838
9.087703,1775669486.683089,599616036764515774,-413,494,-843
9.092703,1775669486.683089,599616036764515774,-412,497,-843
9.097703,1775669486.683089,599616036764515774,-412,498,-838
9.102704,1775669486.683089,599616036764515774,-406,500,-832
9.107704,1775669486.683089,599616036764515774,-402,499,-822
9.112704,1775669486.683089,599616036764515774,-404,499,-829
9.117704,1775669486.683089,599616036764515774,-410,504,-838
9.122704,1775669486.683089,599616036764515774,-404,500,-835
9.127704,1775669486.683089,599616036764515774,-406,500,-839
9.132704,1775669486.683089,599616036764515774,-407,505,-833
9.137704,1775669486.683089,599616036764515774,-407,508,-833
9.142704,1775669486.683089,599616036764515774,-410,509,-832
9.147704,1775669486.683089,599616036764515774,-413,503,-830
9.152704,1775669486.683089,599616036764515774,-411,497,-832
9.157704,1775669486.683089,599616036764515774,-412,496,-833
9.162704,1775669486.683089,599616036764515774,-414,499,-836
9.163945,1775669486.864419,599616036940757214,-411,504,-830
9.168945,1775669486.864419,599616036940757214,-414,501,-830
9.173945,1775669486.864419,599616036940757214,-414,503,-837
9.178945,1775669486.864419,599616036940757214,-411,502,-835
9.183945,1775669486.864419,599616036940757214,-409,503,-836
9.188945,1775669486.864419,599616036940757214,-403,502,-835
9.193945,1775669486.864419,599616036940757214,-395,500,-833
9.198945,1775669486.864419,599616036940757214,-392,500,-831
9.203945,1775669486.864419,599616036940757214,-388,503,-832
9.208945,1775669486.864419,599616036940757214,-392,506,-831
9.213945,1775669486.864419,599616036940757214,-392,508,-834
9.218945,1775669486.864419,599616036940757214,-396,506,-834
9.223945,1775669486.864419,599616036940757214,-394,505,-837
9.228945,1775669486.864419,599616036940757214,-402,506,-840
9.233945,1775669486.864419,599616036940757214,-408,508,-838
9.238945,1775669486.864419,599616036940757214,-414,507,-836
9.243945,1775669486.864419,599616036940757214,-415,511,-837
9.248945,1775669486.864419,599616036940757214,-417,503,-838
9.253945,1775669486.864419,599616036940757214,-417,500,-843
9.258945,1775669486.864419,599616036940757214,-416,496,-851
9.263945,1775669486.864419,599616036940757214,-421,494,-835
9.268945,1775669486.864419,599616036940757214,-414,495,-790
9.273945,1775669486.864419,599616036940757214,-407,517,-837
9.278945,1775669486.864419,599616036940757214,-408,541,-853
9.283945,1775669486.864419,599616036940757214,-404,520,-835
9.288945,1775669486.864419,599616036940757214,-390,509,-828
9.293945,1775669486.864419,599616036940757214,-379,502,-828
9.298945,1775669486.864419,599616036940757214,-373,509,-833
9.303945,1775669486.864419,599616036940757214,-375,511,-834
9.308945,1775669486.864419,599616036940757214,-377,515,-834
9.313945,1775669486.864419,599616036940757214,-389,513,-834
9.318945,1775669486.864419,599616036940757214,-396,508,-835
9.323945,1775669486.864419,599616036940757214,-405,502,-834
9.328945,1775669486.864419,599616036940757214,-409,496,-839
9.333945,1775669486.864419,599616036940757214,-414,495,-840
9.338945,1775669486.864419,599616036940757214,-415,495,-839
9.340125,1775669487.045061,599616037116937644,-415,499,-833
9.345125,1775669487.045061,599616037116937644,-412,500,-826
9.350125,1775669487.045061,599616037116937644,-409,500,-822
9.355125,1775669487.045061,599616037116937644,-410,502,-826
9.360125,1775669487.045061,599616037116937644,-410,503,-827
9.365125,1775669487.045061,599616037116937644,-411,505,-833
9.370125,1775669487.045061,599616037116937644,-412,502,-834
9.375125,1775669487.045061,599616037116937644,-412,497,-833
9.380125,1775669487.045061,599616037116937644,-411,499,-839
9.385125,1775669487.045061,599616037116937644,-408,498,-835
9.390125,1775669487.045061,599616037116937644,-400,497,-835
9.395125,1775669487.045061,599616037116937644,-396,498,-836
9.400125,1775669487.045061,599616037116937644,-390,502,-835
9.405125,1775669487.045061,599616037116937644,-385,503,-839
9.410125,1775669487.045061,599616037116937644,-393,508,-843
9.415125,1775669487.045061,599616037116937644,-395,507,-843
9.420125,1775669487.045061,599616037116937644,-407,502,-841
9.425125,1775669487.045061,599616037116937644,-411,503,-839
9.430125,1775669487.045061,599616037116937644,-413,499,-836
9.435125,1775669487.045061,599616037116937644,-417,500,-835
9.440125,1775669487.045061,599616037116937644,-418,502,-836
9.445125,1775669487.045061,599616037116937644,-417,506,-835
9.450125,1775669487.045061,599616037116937644,-414,506,-836
9.455125,1775669487.045061,599616037116937644,-413,503,-834
9.460125,1775669487.045061,599616037116937644,-407,506,-836
9.465125,1775669487.045061,599616037116937644,-401,506,-834
9.470125,1775669487.045061,599616037116937644,-399,505,-837
9.475125,1775669487.045061,599616037116937644,-401,504,-838
9.480125,1775669487.045061,599616037116937644,-407,504,-839
9.485125,1775669487.045061,599616037116937644,-407,506,-834
9.490125,1775669487.045061,599616037116937644,-403,507,-836
9.495125,1775669487.045061,599616037116937644,-401,506,-836
9.500125,1775669487.045061,599616037116937644,-402,503,-838
9.505125,1775669487.045061,599616037116937644,-405,502,-838
9.510125,1775669487.045061,599616037116937644,-407,501,-838
9.515125,1775669487.045061,599616037116937644,-406,502,-834
9.516306,1775669487.222012,599616037293118058,-407,508,-834
9.521306,1775669487.222012,599616037293118058,-408,505,-832
9.526306,1775669487.222012,599616037293118058,-406,509,-830
9.531306,1775669487.222012,599616037293118058,-402,506,-834
9.536306,1775669487.222012,599616037293118058,-400,502,-838
9.541306,1775669487.222012,599616037293118058,-398,500,-835
9.546306,1775669487.222012,599616037293118058,-395,500,-833
9.551306,1775669487.222012,599616037293118058,-394,499,-825
9.556306,1775669487.222012,599616037293118058,-396,500,-830
9.561306,1775669487.222012,599616037293118058,-406,501,-826
9.566306,1775669487.222012,599616037293118058,-410,504,-828
9.571306,1775669487.222012,599616037293118058,-414,501,-825
9.576306,1775669487.222012,599616037293118058,-411,504,-826
9.581306,1775669487.222012,599616037293118058,-407,501,-828
9.586306,1775669487.222012,599616037293118058,-407,500,-834
9.591306,1775669487.222012,599616037293118058,-404,500,-838
9.596306,1775669487.222012,599616037293118058,-402,503,-840
9.601306,1775669487.222012,599616037293118058,-395,503,-842
9.606306,1775669487.222012,599616037293118058,-386,509,-839
9.611306,1775669487.222012,599616037293118058,-377,511,-841
9.616306,1775669487.222012,599616037293118058,-372,503,-840
9.621306,1775669487.222012,599616037293118058,-380,503,-842
