time,t_wall,t_device_ns,x,y,z
0.000000,1775659130.112495,599616648059617824,-996,112,205
0.005000,1775659130.112495,599616648059617824,-995,114,204
0.010000,1775659130.112495,599616648059617824,-993,115,206
0.015000,1775659130.112495,599616648059617824,-994,115,197
0.020000,1775659130.112495,599616648059617824,-992,114,204
0.025000,1775659130.112495,599616648059617824,-990,114,200
0.030000,1775659130.112495,599616648059617824,-990,115,193
0.035000,1775659130.112495,599616648059617824,-990,114,197
0.040000,1775659130.112495,599616648059617824,-990,114,202
0.045000,1775659130.112495,599616648059617824,-992,114,201
0.050000,1775659130.112495,599616648059617824,-990,114,194
0.055000,1775659130.112495,599616648059617824,-989,114,200
0.060000,1775659130.112495,599616648059617824,-989,114,197
0.065000,1775659130.112495,599616648059617824,-986,114,201
0.070000,1775659130.112495,599616648059617824,-988,114,199
0.075000,1775659130.112495,599616648059617824,-990,115,199
0.080000,1775659130.112495,599616648059617824,-990,117,197
0.085000,1775659130.112495,599616648059617824,-990,114,194
0.090000,1775659130.112495,599616648059617824,-991,114,198
0.095000,1775659130.112495,599616648059617824,-992,114,205
0.100000,1775659130.112495,599616648059617824,-991,116,198
0.105000,1775659130.112495,599616648059617824,-992,113,198
0.110000,1775659130.112495,599616648059617824,-993,114,202
0.115000,1775659130.112495,599616648059617824,-991,115,201
0.120000,1775659130.112495,599616648059617824,-990,113,194
0.125000,1775659130.112495,599616648059617824,-992,116,197
0.130000,1775659130.112495,599616648059617824,-993,114,199
0.135000,1775659130.112495,599616648059617824,-990,115,199
0.140000,1775659130.112495,599616648059617824,-990,114,196
0.145000,1775659130.112495,599616648059617824,-988,114,196
0.150000,1775659130.112495,599616648059617824,-988,117,199
0.155000,1775659130.112495,599616648059617824,-992,116,191
0.160000,1775659130.112495,599616648059617824,-989,114,199
0.165000,1775659130.112495,599616648059617824,-990,114,202
0.170000,1775659130.112495,599616648059617824,-987,112,207
0.175000,1775659130.112495,599616648059617824,-990,114,206
0.176180,1775659130.247501,599616648235798232,-992,111,207
0.181180,1775659130.247501,599616648235798232,-990,114,199
0.186180,1775659130.247501,599616648235798232,-995,113,195
0.191180,1775659130.247501,599616648235798232,-996,115,198
0.196180,1775659130.247501,599616648235798232,-992,114,193
0.201180,1775659130.247501,599616648235798232,-994,115,188
0.206180,1775659130.247501,599616648235798232,-991,112,189
0.211180,1775659130.247501,599616648235798232,-987,111,190
0.216180,1775659130.247501,599616648235798232,-985,111,194
0.221180,1775659130.247501,599616648235798232,-987,114,194
0.226180,1775659130.247501,599616648235798232,-986,113,198
0.231180,1775659130.247501,599616648235798232,-988,114,198
0.236180,1775659130.247501,599616648235798232,-994,114,199
0.241180,1775659130.247501,599616648235798232,-994,114,202
0.246180,1775659130.247501,599616648235798232,-994,115,197
0.251180,1775659130.247501,599616648235798232,-996,117,198
0.256180,1775659130.247501,599616648235798232,-992,116,200
0.261180,1775659130.247501,599616648235798232,-996,116,200
0.266180,1775659130.247501,599616648235798232,-994,115,204
0.271180,1775659130.247501,599616648235798232,-996,114,200
0.276180,1775659130.247501,599616648235798232,-994,114,198
0.281180,1775659130.247501,599616648235798232,-994,114,202
0.286180,1775659130.247501,599616648235798232,-993,115,201
0.291180,1775659130.247501,599616648235798232,-993,113,201
0.296180,1775659130.247501,599616648235798232,-995,112,202
0.301180,1775659130.247501,599616648235798232,-994,115,200
0.306180,1775659130.247501,599616648235798232,-992,114,203
0.311180,1775659130.247501,599616648235798232,-993,112,201
0.316180,1775659130.247501,599616648235798232,-990,116,203
0.321180,1775659130.247501,599616648235798232,-992,115,202
0.326180,1775659130.247501,599616648235798232,-990,115,201
0.331180,1775659130.247501,599616648235798232,-990,116,205
0.336180,1775659130.247501,599616648235798232,-990,114,203
0.341180,1775659130.247501,599616648235798232,-989,114,201
0.346180,1775659130.247501,599616648235798232,-989,116,203
0.351180,1775659130.247501,599616648235798232,-987,115,199
0.352300,1775659130.427516,599616648411917590,-990,112,204
0.357300,1775659130.427516,599616648411917590,-992,116,199
0.362300,1775659130.427516,599616648411917590,-989,116,195
0.367300,1775659130.427516,599616648411917590,-991,115,207
0.372300,1775659130.427516,599616648411917590,-992,114,199
0.377300,1775659130.427516,599616648411917590,-994,113,194
0.382300,1775659130.427516,599616648411917590,-992,115,195
0.387300,1775659130.427516,599616648411917590,-992,116,192
0.392300,1775659130.427516,599616648411917590,-991,114,198
0.397300,1775659130.427516,599616648411917590,-992,118,193
0.402300,1775659130.427516,599616648411917590,-988,116,196
0.407300,1775659130.427516,599616648411917590,-992,117,197
0.412300,1775659130.427516,599616648411917590,-991,115,199
0.417300,1775659130.427516,599616648411917590,-993,115,195
0.422300,1775659130.427516,599616648411917590,-989,115,195
0.427300,1775659130.427516,599616648411917590,-990,115,195
0.432300,1775659130.427516,599616648411917590,-991,115,201
0.437300,1775659130.427516,599616648411917590,-991,114,198
0.442300,1775659130.427516,599616648411917590,-991,117,201
0.447300,1775659130.427516,599616648411917590,-991,114,203
0.452300,1775659130.427516,599616648411917590,-991,115,206
0.457300,1775659130.427516,599616648411917590,-993,114,199
0.462300,1775659130.427516,599616648411917590,-990,114,200
0.467300,1775659130.427516,599616648411917590,-988,114,199
0.472300,1775659130.427516,599616648411917590,-990,115,204
0.477300,1775659130.427516,599616648411917590,-985,114,203
0.482300,1775659130.427516,599616648411917590,-987,114,202
0.487300,1775659130.427516,599616648411917590,-990,115,206
0.492300,1775659130.427516,599616648411917590,-989,115,201
0.497300,1775659130.427516,599616648411917590,-990,115,201
0.502300,1775659130.427516,599616648411917590,-989,115,200
0.507300,1775659130.427516,599616648411917590,-991,116,205
0.512300,1775659130.427516,599616648411917590,-992,116,199
0.517300,1775659130.427516,599616648411917590,-992,116,199
0.522300,1775659130.427516,599616648411917590,-990,115,205
0.527300,1775659130.427516,599616648411917590,-995,116,202
0.528419,1775659130.607480,599616648588036968,-993,115,202
0.533419,1775659130.607480,599616648588036968,-990,115,204
0.538419,1775659130.607480,599616648588036968,-993,115,203
0.543419,1775659130.607480,599616648588036968,-994,117,203
0.548419,1775659130.607480,599616648588036968,-992,112,211
0.553419,1775659130.607480,599616648588036968,-992,114,202
0.558419,1775659130.607480,599616648588036968,-990,115,207
0.563419,1775659130.607480,599616648588036968,-991,115,202
0.568419,1775659130.607480,599616648588036968,-991,114,206
0.573419,1775659130.607480,599616648588036968,-989,116,199
0.578419,1775659130.607480,599616648588036968,-989,117,199
0.583419,1775659130.607480,599616648588036968,-989,115,202
0.588419,1775659130.607480,599616648588036968,-989,116,201
0.593419,1775659130.607480,599616648588036968,-986,116,205
0.598419,1775659130.607480,599616648588036968,-987,117,204
0.603419,1775659130.607480,599616648588036968,-988,117,202
0.608419,1775659130.607480,599616648588036968,-990,118,205
0.613419,1775659130.607480,599616648588036968,-989,114,202
0.618419,1775659130.607480,599616648588036968,-988,114,201
0.623419,1775659130.607480,599616648588036968,-989,115,199
0.628419,1775659130.607480,599616648588036968,-988,114,201
0.633419,1775659130.607480,599616648588036968,-989,117,203
0.638419,1775659130.607480,599616648588036968,-987,114,200
0.643419,1775659130.607480,599616648588036968,-987,114,202
0.648419,1775659130.607480,599616648588036968,-990,115,201
0.653419,1775659130.607480,599616648588036968,-987,116,204
0.658419,1775659130.607480,599616648588036968,-988,115,206
0.663419,1775659130.607480,599616648588036968,-989,115,205
0.668419,1775659130.607480,599616648588036968,-989,115,210
0.673419,1775659130.607480,599616648588036968,-990,111,212
0.678419,1775659130.607480,599616648588036968,-988,116,211
0.683419,1775659130.607480,599616648588036968,-984,115,207
0.688419,1775659130.607480,599616648588036968,-989,115,211
0.693419,1775659130.607480,599616648588036968,-988,114,205
0.698419,1775659130.607480,599616648588036968,-987,116,207
0.703419,1775659130.607480,599616648588036968,-986,115,206
0.704600,1775659130.787519,599616648764217402,-986,112,209
0.709600,1775659130.787519,599616648764217402,-987,115,207
0.714600,1775659130.787519,599616648764217402,-989,112,208
0.719600,1775659130.787519,599616648764217402,-988,113,207
0.724600,1775659130.787519,599616648764217402,-990,112,209
0.729600,1775659130.787519,599616648764217402,-989,110,212
0.734600,1775659130.787519,599616648764217402,-991,115,213
0.739600,1775659130.787519,599616648764217402,-993,115,206
0.744600,1775659130.787519,599616648764217402,-990,116,209
0.749600,1775659130.787519,599616648764217402,-989,113,215
0.754600,1775659130.787519,599616648764217402,-991,115,211
0.759600,1775659130.787519,599616648764217402,-993,114,206
0.764600,1775659130.787519,599616648764217402,-993,114,201
0.769600,1775659130.787519,599616648764217402,-994,112,201
0.774600,1775659130.787519,599616648764217402,-994,111,208
0.779600,1775659130.787519,599616648764217402,-996,114,207
0.784600,1775659130.787519,599616648764217402,-994,114,200
0.789600,1775659130.787519,599616648764217402,-997,116,201
0.794600,1775659130.787519,599616648764217402,-991,113,206
0.799600,1775659130.787519,599616648764217402,-989,115,211
0.804600,1775659130.787519,599616648764217402,-984,114,215
0.809600,1775659130.787519,599616648764217402,-982,115,210
0.814600,1775659130.787519,599616648764217402,-977,114,209
0.819600,1775659130.787519,599616648764217402,-979,113,211
0.824600,1775659130.787519,599616648764217402,-980,113,208
0.829600,1775659130.787519,599616648764217402,-986,115,207
0.834600,1775659130.787519,599616648764217402,-989,114,209
0.839600,1775659130.787519,599616648764217402,-991,115,209
0.844600,1775659130.787519,599616648764217402,-989,114,218
0.849600,1775659130.787519,599616648764217402,-984,114,220
0.854600,1775659130.787519,599616648764217402,-986,114,218
0.859600,1775659130.787519,599616648764217402,-985,115,214
0.864600,1775659130.787519,599616648764217402,-988,116,216
0.869600,1775659130.787519,599616648764217402,-990,117,211
0.874600,1775659130.787519,599616648764217402,-992,115,206
0.879600,1775659130.787519,599616648764217402,-991,114,201
0.880780,1775659130.968520,599616648940397816,-985,111,201
0.885780,1775659130.968520,599616648940397816,-985,114,201
0.890780,1775659130.968520,599616648940397816,-985,114,200
0.895780,1775659130.968520,599616648940397816,-983,115,206
0.900780,1775659130.968520,599616648940397816,-985,116,212
0.905780,1775659130.968520,599616648940397816,-986,114,219
0.910780,1775659130.968520,599616648940397816,-987,114,222
0.915780,1775659130.968520,599616648940397816,-990,115,220
0.920780,1775659130.968520,599616648940397816,-999,115,217
0.925780,1775659130.968520,599616648940397816,-994,115,216
0.930780,1775659130.968520,599616648940397816,-992,115,218
0.935780,1775659130.968520,599616648940397816,-994,114,216
0.940780,1775659130.968520,599616648940397816,-994,113,216
0.945780,1775659130.968520,599616648940397816,-991,115,215
0.950780,1775659130.968520,599616648940397816,-992,114,215
0.955780,1775659130.968520,599616648940397816,-990,114,210
0.960780,1775659130.968520,599616648940397816,-991,113,215
0.965780,1775659130.968520,599616648940397816,-990,116,209
0.970780,1775659130.968520,599616648940397816,-989,116,210
0.975780,1775659130.968520,599616648940397816,-987,114,209
0.980780,1775659130.968520,599616648940397816,-990,114,209
0.985780,1775659130.968520,599616648940397816,-984,116,212
0.990780,1775659130.968520,599616648940397816,-986,116,212
0.995780,1775659130.968520,599616648940397816,-982,115,214
1.000780,1775659130.968520,599616648940397816,-983,115,213
1.005780,1775659130.968520,599616648940397816,-985,115,213
1.010780,1775659130.968520,599616648940397816,-986,115,214
1.015780,1775659130.968520,599616648940397816,-983,115,212
1.020780,1775659130.968520,599616648940397816,-984,117,214
1.025780,1775659130.968520,599616648940397816,-983,115,211
1.030780,1775659130.968520,599616648940397816,-985,114,213
1.035780,1775659130.968520,599616648940397816,-984,116,215
1.040780,1775659130.968520,599616648940397816,-987,114,217
1.045780,1775659130.968520,599616648940397816,-987,115,218
1.050780,1775659130.968520,599616648940397816,-987,115,215
1.055780,1775659130.968520,599616648940397816,-988,114,215
1.056960,1775659131.147508,599616649116578230,-988,112,216
1.061960,1775659131.147508,599616649116578230,-991,117,222
1.066960,1775659131.147508,599616649116578230,-990,116,218
1.071960,1775659131.147508,599616649116578230,-989,117,218
1.076960,1775659131.147508,599616649116578230,-988,117,218
1.081960,1775659131.147508,599616649116578230,-987,117,215
1.086960,1775659131.147508,599616649116578230,-985,114,222
1.091960,1775659131.147508,599616649116578230,-986,114,216
1.096960,1775659131.147508,599616649116578230,-986,116,215
1.101960,1775659131.147508,599616649116578230,-983,115,222
1.106960,1775659131.147508,599616649116578230,-984,115,221
1.111960,1775659131.147508,599616649116578230,-984,114,230
1.116960,1775659131.147508,599616649116578230,-984,114,229
1.121960,1775659131.147508,599616649116578230,-989,116,227
1.126960,1775659131.147508,599616649116578230,-992,115,222
1.131960,1775659131.147508,599616649116578230,-990,114,220
1.136960,1775659131.147508,599616649116578230,-996,114,216
1.141960,1775659131.147508,599616649116578230,-992,114,205
1.146960,1775659131.147508,599616649116578230,-990,112,200
1.151960,1775659131.147508,599616649116578230,-986,114,202
1.156960,1775659131.147508,599616649116578230,-984,115,210
1.161960,1775659131.147508,599616649116578230,-980,114,210
1.166960,1775659131.147508,599616649116578230,-980,113,215
1.171960,1775659131.147508,599616649116578230,-980,115,218
1.176960,1775659131.147508,599616649116578230,-980,114,220
1.181960,1775659131.147508,599616649116578230,-982,111,225
1.186960,1775659131.147508,599616649116578230,-987,113,223
1.191960,1775659131.147508,599616649116578230,-987,113,225
1.196960,1775659131.147508,599616649116578230,-989,115,224
1.201960,1775659131.147508,599616649116578230,-987,114,221
1.206960,1775659131.147508,599616649116578230,-986,115,219
1.211960,1775659131.147508,599616649116578230,-984,114,221
1.216960,1775659131.147508,599616649116578230,-983,115,223
1.221960,1775659131.147508,599616649116578230,-987,114,224
1.226960,1775659131.147508,599616649116578230,-986,116,223
1.231960,1775659131.147508,599616649116578230,-983,113,222
1.233080,1775659131.328504,599616649292697588,-986,114,218
1.238080,1775659131.328504,599616649292697588,-988,114,226
1.243080,1775659131.328504,599616649292697588,-986,114,224
1.248080,1775659131.328504,599616649292697588,-987,113,230
1.253080,1775659131.328504,599616649292697588,-986,114,222
1.258080,1775659131.328504,599616649292697588,-983,114,224
1.263080,1775659131.328504,599616649292697588,-987,117,223
1.268080,1775659131.328504,599616649292697588,-983,110,228
1.273080,1775659131.328504,599616649292697588,-985,115,222
1.278080,1775659131.328504,599616649292697588,-982,114,218
1.283080,1775659131.328504,599616649292697588,-984,114,223
1.288080,1775659131.328504,599616649292697588,-982,114,216
1.293080,1775659131.328504,599616649292697588,-984,114,216
1.298080,1775659131.328504,599616649292697588,-984,114,212
1.303080,1775659131.328504,599616649292697588,-982,117,219
1.308080,1775659131.328504,599616649292697588,-981,117,215
1.313080,1775659131.328504,599616649292697588,-983,115,215
1.318080,1775659131.328504,599616649292697588,-984,114,217
1.323080,1775659131.328504,599616649292697588,-985,115,219
1.328080,1775659131.328504,599616649292697588,-982,113,218
1.333080,1775659131.328504,599616649292697588,-983,114,219
1.338080,1775659131.328504,599616649292697588,-985,114,218
1.343080,1775659131.328504,599616649292697588,-984,115,216
1.348080,1775659131.328504,599616649292697588,-981,114,215
1.353080,1775659131.328504,599616649292697588,-982,116,219
1.358080,1775659131.328504,599616649292697588,-981,114,217
1.363080,1775659131.328504,599616649292697588,-982,115,221
1.368080,1775659131.328504,599616649292697588,-981,116,223
1.373080,1775659131.328504,599616649292697588,-982,116,222
1.378080,1775659131.328504,599616649292697588,-982,117,221
1.383080,1775659131.328504,599616649292697588,-982,116,219
1.388080,1775659131.328504,599616649292697588,-983,116,221
1.393080,1775659131.328504,599616649292697588,-987,117,222
1.398080,1775659131.328504,599616649292697588,-985,116,217
1.403080,1775659131.328504,599616649292697588,-985,116,221
1.408080,1775659131.328504,599616649292697588,-988,115,217
1.409291,1775659131.507485,599616649468908550,-984,116,220
1.414291,1775659131.507485,599616649468908550,-986,115,222
1.419291,1775659131.507485,599616649468908550,-985,115,218
1.424291,1775659131.507485,599616649468908550,-985,112,224
1.429291,1775659131.507485,599616649468908550,-985,114,218
1.434291,1775659131.507485,599616649468908550,-987,113,220
1.439291,1775659131.507485,599616649468908550,-985,113,221
1.444291,1775659131.507485,599616649468908550,-984,113,223
1.449291,1775659131.507485,599616649468908550,-984,109,228
1.454291,1775659131.507485,599616649468908550,-987,111,222
1.459291,1775659131.507485,599616649468908550,-983,114,225
1.464291,1775659131.507485,599616649468908550,-984,112,219
1.469291,1775659131.507485,599616649468908550,-984,114,221
1.474291,1775659131.507485,599616649468908550,-987,114,223
1.479291,1775659131.507485,599616649468908550,-984,114,223
1.484291,1775659131.507485,599616649468908550,-986,113,220
1.489291,1775659131.507485,599616649468908550,-986,114,222
1.494291,1775659131.507485,599616649468908550,-984,114,226
1.499291,1775659131.507485,599616649468908550,-986,115,220
1.504291,1775659131.507485,599616649468908550,-987,112,224
1.509291,1775659131.507485,599616649468908550,-988,116,222
1.514291,1775659131.507485,599616649468908550,-988,115,219
1.519291,1775659131.507485,599616649468908550,-990,116,225
1.524291,1775659131.507485,599616649468908550,-989,114,220
1.529291,1775659131.507485,599616649468908550,-989,113,221
1.534291,1775659131.507485,599616649468908550,-986,113,222
1.539291,1775659131.507485,599616649468908550,-988,114,229
1.544291,1775659131.507485,599616649468908550,-987,114,227
1.549291,1775659131.507485,599616649468908550,-987,113,225
1.554291,1775659131.507485,599616649468908550,-985,118,224
1.559291,1775659131.507485,599616649468908550,-986,114,222
1.564291,1775659131.507485,599616649468908550,-986,115,221
1.569291,1775659131.507485,599616649468908550,-985,115,222
1.574291,1775659131.507485,599616649468908550,-985,116,224
1.579291,1775659131.507485,599616649468908550,-987,116,225
1.584291,1775659131.507485,599616649468908550,-985,113,227
1.585471,1775659131.686498,599616649645088954,-986,113,228
1.590471,1775659131.686498,599616649645088954,-984,116,226
1.595471,1775659131.686498,599616649645088954,-988,113,225
1.600471,1775659131.686498,599616649645088954,-987,114,229
1.605471,1775659131.686498,599616649645088954,-985,117,219
1.610471,1775659131.686498,599616649645088954,-986,116,223
1.615471,1775659131.686498,599616649645088954,-984,114,222
1.620471,1775659131.686498,599616649645088954,-985,115,226
1.625471,1775659131.686498,599616649645088954,-985,112,227
1.630471,1775659131.686498,599616649645088954,-986,110,226
1.635471,1775659131.686498,599616649645088954,-986,114,230
1.640471,1775659131.686498,599616649645088954,-985,111,228
1.645471,1775659131.686498,599616649645088954,-985,113,228
1.650471,1775659131.686498,599616649645088954,-984,111,227
1.655471,1775659131.686498,599616649645088954,-989,116,226
1.660471,1775659131.686498,599616649645088954,-985,114,227
1.665471,1775659131.686498,599616649645088954,-987,114,228
1.670471,1775659131.686498,599616649645088954,-990,113,226
1.675471,1775659131.686498,599616649645088954,-985,114,231
1.680471,1775659131.686498,599616649645088954,-987,114,221
1.685471,1775659131.686498,599616649645088954,-987,111,229
1.690471,1775659131.686498,599616649645088954,-986,111,227
1.695471,1775659131.686498,599616649645088954,-984,114,223
1.700471,1775659131.686498,599616649645088954,-985,115,222
1.705471,1775659131.686498,599616649645088954,-985,114,222
1.710471,1775659131.686498,599616649645088954,-987,116,215
1.715471,1775659131.686498,599616649645088954,-992,115,217
1.720471,1775659131.686498,599616649645088954,-995,113,217
1.725471,1775659131.686498,599616649645088954,-996,115,218
1.730471,1775659131.686498,599616649645088954,-994,115,212
1.735471,1775659131.686498,599616649645088954,-991,116,220
1.740471,1775659131.686498,599616649645088954,-986,115,222
1.745471,1775659131.686498,599616649645088954,-979,116,225
1.750471,1775659131.686498,599616649645088954,-975,115,230
1.755471,1775659131.686498,599616649645088954,-974,116,229
1.760471,1775659131.686498,599616649645088954,-975,115,238
1.761713,1775659131.822488,599616649821330388,-982,109,235
1.766713,1775659131.822488,599616649821330388,-990,115,236
1.771713,1775659131.822488,599616649821330388,-993,117,226
1.776713,1775659131.822488,599616649821330388,-996,116,225
1.781713,1775659131.822488,599616649821330388,-997,114,223
1.786713,1775659131.822488,599616649821330388,-991,113,223
1.791713,1775659131.822488,599616649821330388,-988,113,219
1.796713,1775659131.822488,599616649821330388,-982,115,224
1.801713,1775659131.822488,599616649821330388,-979,114,223
1.806713,1775659131.822488,599616649821330388,-985,112,225
1.811713,1775659131.822488,599616649821330388,-985,110,221
1.816713,1775659131.822488,599616649821330388,-986,111,214
1.821713,1775659131.822488,599616649821330388,-985,113,213
1.826713,1775659131.822488,599616649821330388,-984,114,211
1.831713,1775659131.822488,599616649821330388,-981,115,211
1.836713,1775659131.822488,599616649821330388,-979,116,217
1.841713,1775659131.822488,599616649821330388,-981,115,219
1.846713,1775659131.822488,599616649821330388,-981,116,221
1.851713,1775659131.822488,599616649821330388,-987,116,223
1.856713,1775659131.822488,599616649821330388,-988,113,221
1.861713,1775659131.822488,599616649821330388,-990,116,226
1.866713,1775659131.822488,599616649821330388,-993,115,225
1.871713,1775659131.822488,599616649821330388,-996,115,227
1.876713,1775659131.822488,599616649821330388,-992,115,225
1.881713,1775659131.822488,599616649821330388,-993,115,225
1.886713,1775659131.822488,599616649821330388,-993,116,222
1.891713,1775659131.822488,599616649821330388,-990,115,219
1.896713,1775659131.822488,599616649821330388,-990,115,221
1.901713,1775659131.822488,599616649821330388,-991,115,220
1.906713,1775659131.822488,599616649821330388,-988,114,222
1.911713,1775659131.822488,599616649821330388,-989,114,221
1.916713,1775659131.822488,599616649821330388,-989,115,216
1.921713,1775659131.822488,599616649821330388,-987,114,216
1.926713,1775659131.822488,599616649821330388,-987,112,216
1.931713,1775659131.822488,599616649821330388,-985,115,219
1.936713,1775659131.822488,599616649821330388,-983,115,217
1.937924,1775659132.091514,599616649997541346,-981,111,219
1.942924,1775659132.091514,599616649997541346,-984,112,224
1.947924,1775659132.091514,599616649997541346,-984,114,224
1.952924,1775659132.091514,599616649997541346,-981,113,223
1.957924,1775659132.091514,599616649997541346,-982,115,218
1.962924,1775659132.091514,599616649997541346,-982,116,220
1.967924,1775659132.091514,599616649997541346,-985,115,220
1.972924,1775659132.091514,599616649997541346,-989,113,214
1.977924,1775659132.091514,599616649997541346,-990,114,218
1.982924,1775659132.091514,599616649997541346,-988,115,221
1.987924,1775659132.091514,599616649997541346,-990,114,217
1.992924,1775659132.091514,599616649997541346,-990,112,213
1.997924,1775659132.091514,599616649997541346,-990,115,218
2.002924,1775659132.091514,599616649997541346,-990,113,215
2.007924,1775659132.091514,599616649997541346,-992,112,216
2.012924,1775659132.091514,599616649997541346,-992,114,218
2.017924,1775659132.091514,599616649997541346,-991,115,219
2.022924,1775659132.091514,599616649997541346,-990,115,221
2.027924,1775659132.091514,599616649997541346,-991,116,220
2.032924,1775659132.091514,599616649997541346,-990,115,214
2.037924,1775659132.091514,599616649997541346,-988,115,206
2.042924,1775659132.091514,599616649997541346,-989,114,215
2.047924,1775659132.091514,599616649997541346,-986,115,216
2.052924,1775659132.091514,599616649997541346,-986,113,218
2.057924,1775659132.091514,599616649997541346,-983,114,220
2.062924,1775659132.091514,599616649997541346,-986,115,223
2.067924,1775659132.091514,599616649997541346,-987,115,218
2.072924,1775659132.091514,599616649997541346,-987,115,225
2.077924,1775659132.091514,599616649997541346,-991,114,223
2.082924,1775659132.091514,599616649997541346,-993,115,216
2.087924,1775659132.091514,599616649997541346,-992,113,211
2.092924,1775659132.091514,599616649997541346,-994,113,213
2.097924,1775659132.091514,599616649997541346,-987,111,208
2.102924,1775659132.091514,599616649997541346,-984,113,208
2.107924,1775659132.091514,599616649997541346,-986,113,208
2.112924,1775659132.091514,599616649997541346,-983,113,213
2.114074,1775659132.182484,599616650173691222,-983,107,213
2.119074,1775659132.182484,599616650173691222,-985,112,214
2.124074,1775659132.182484,599616650173691222,-983,111,219
2.129074,1775659132.182484,599616650173691222,-989,114,215
2.134073,1775659132.182484,599616650173691222,-990,112,213
2.139073,1775659132.182484,599616650173691222,-990,114,215
2.144073,1775659132.182484,599616650173691222,-989,116,214
2.149073,1775659132.182484,599616650173691222,-987,114,216
2.154073,1775659132.182484,599616650173691222,-987,114,215
2.159073,1775659132.182484,599616650173691222,-986,115,218
2.164073,1775659132.182484,599616650173691222,-990,113,213
2.169073,1775659132.182484,599616650173691222,-992,115,219
2.174073,1775659132.182484,599616650173691222,-990,114,218
2.179073,1775659132.182484,599616650173691222,-993,114,218
2.184073,1775659132.182484,599616650173691222,-990,114,222
2.189073,1775659132.182484,599616650173691222,-990,113,221
2.194073,1775659132.182484,599616650173691222,-988,115,212
2.199073,1775659132.182484,599616650173691222,-990,116,214
2.204073,1775659132.182484,599616650173691222,-986,114,217
2.209073,1775659132.182484,599616650173691222,-989,114,221
2.214073,1775659132.182484,599616650173691222,-985,114,221
2.219073,1775659132.182484,599616650173691222,-988,114,218
2.224073,1775659132.182484,599616650173691222,-988,113,214
2.229074,1775659132.182484,599616650173691222,-987,114,217
2.234074,1775659132.182484,599616650173691222,-989,114,218
2.239074,1775659132.182484,599616650173691222,-987,114,215
2.244074,1775659132.182484,599616650173691222,-987,114,210
2.249074,1775659132.182484,599616650173691222,-987,115,212
2.254074,1775659132.182484,599616650173691222,-988,114,210
2.259073,1775659132.182484,599616650173691222,-988,114,213
2.264073,1775659132.182484,599616650173691222,-986,114,213
2.269073,1775659132.182484,599616650173691222,-988,115,216
2.274073,1775659132.182484,599616650173691222,-988,115,213
2.279073,1775659132.182484,599616650173691222,-988,114,210
2.284073,1775659132.182484,599616650173691222,-988,115,211
2.289073,1775659132.182484,599616650173691222,-988,116,207
2.290284,1775659132.362493,599616650349902174,-986,116,207
2.295284,1775659132.362493,599616650349902174,-986,116,212
2.300284,1775659132.362493,599616650349902174,-989,113,212
2.305284,1775659132.362493,599616650349902174,-989,112,216
2.310284,1775659132.362493,599616650349902174,-989,113,213
2.315284,1775659132.362493,599616650349902174,-985,115,210
2.320284,1775659132.362493,599616650349902174,-990,116,210
2.325284,1775659132.362493,599616650349902174,-988,115,208
2.330284,1775659132.362493,599616650349902174,-988,116,209
2.335284,1775659132.362493,599616650349902174,-986,117,210
2.340284,1775659132.362493,599616650349902174,-985,117,215
2.345284,1775659132.362493,599616650349902174,-987,114,215
2.350284,1775659132.362493,599616650349902174,-988,115,208
2.355284,1775659132.362493,599616650349902174,-989,115,212
2.360284,1775659132.362493,599616650349902174,-988,114,208
2.365284,1775659132.362493,599616650349902174,-987,116,209
2.370284,1775659132.362493,599616650349902174,-987,115,206
2.375284,1775659132.362493,599616650349902174,-989,116,209
2.380284,1775659132.362493,599616650349902174,-985,113,209
2.385284,1775659132.362493,599616650349902174,-987,112,213
2.390284,1775659132.362493,599616650349902174,-987,114,211
2.395284,1775659132.362493,599616650349902174,-990,115,213
2.400284,1775659132.362493,599616650349902174,-989,115,211
2.405284,1775659132.362493,599616650349902174,-989,114,211
2.410284,1775659132.362493,599616650349902174,-990,114,209
2.415284,1775659132.362493,599616650349902174,-993,115,211
2.420284,1775659132.362493,599616650349902174,-990,113,215
2.425284,1775659132.362493,599616650349902174,-987,112,204
2.430284,1775659132.362493,599616650349902174,-989,114,212
2.435284,1775659132.362493,599616650349902174,-988,115,213
2.440284,1775659132.362493,599616650349902174,-990,111,212
2.445284,1775659132.362493,599616650349902174,-989,113,216
2.450284,1775659132.362493,599616650349902174,-991,112,211
2.455284,1775659132.362493,599616650349902174,-986,113,214
2.460284,1775659132.362493,599616650349902174,-989,112,214
2.465284,1775659132.362493,599616650349902174,-987,113,210
2.466495,1775659132.587503,599616650526113106,-988,111,212
2.471495,1775659132.587503,599616650526113106,-990,114,209
2.476495,1775659132.587503,599616650526113106,-989,112,211
2.481495,1775659132.587503,599616650526113106,-988,112,219
2.486495,1775659132.587503,599616650526113106,-987,111,218
2.491495,1775659132.587503,599616650526113106,-991,113,211
2.496495,1775659132.587503,599616650526113106,-988,114,209
2.501495,1775659132.587503,599616650526113106,-987,115,208
2.506495,1775659132.587503,599616650526113106,-989,113,213
2.511495,1775659132.587503,599616650526113106,-990,112,210
2.516495,1775659132.587503,599616650526113106,-988,115,210
2.521495,1775659132.587503,599616650526113106,-991,114,214
2.526495,1775659132.587503,599616650526113106,-989,113,212
2.531495,1775659132.587503,599616650526113106,-989,116,213
2.536495,1775659132.587503,599616650526113106,-990,115,217
2.541495,1775659132.587503,599616650526113106,-989,114,203
2.546495,1775659132.587503,599616650526113106,-989,116,205
2.551495,1775659132.587503,599616650526113106,-988,112,204
2.556495,1775659132.587503,599616650526113106,-990,114,206
2.561495,1775659132.587503,599616650526113106,-987,111,200
2.566495,1775659132.587503,599616650526113106,-987,114,205
2.571495,1775659132.587503,599616650526113106,-988,114,207
2.576495,1775659132.587503,599616650526113106,-988,114,204
2.581495,1775659132.587503,599616650526113106,-986,114,202
2.586495,1775659132.587503,599616650526113106,-989,114,201
2.591495,1775659132.587503,599616650526113106,-991,117,203
2.596495,1775659132.587503,599616650526113106,-987,116,208
2.601495,1775659132.587503,599616650526113106,-988,114,205
2.606495,1775659132.587503,599616650526113106,-989,115,205
2.611495,1775659132.587503,599616650526113106,-984,115,205
2.616495,1775659132.587503,599616650526113106,-989,116,211
2.621495,1775659132.587503,599616650526113106,-988,114,213
2.626495,1775659132.587503,599616650526113106,-989,114,211
2.631495,1775659132.587503,599616650526113106,-988,115,211
2.636495,1775659132.587503,599616650526113106,-987,116,208
2.641495,1775659132.587503,599616650526113106,-987,113,210
2.642706,1775659132.722485,599616650702324038,-990,113,213
2.647706,1775659132.722485,599616650702324038,-987,112,208
2.652706,1775659132.722485,599616650702324038,-989,115,208
2.657706,1775659132.722485,599616650702324038,-989,114,201
2.662706,1775659132.722485,599616650702324038,-990,113,208
2.667706,1775659132.722485,599616650702324038,-994,116,208
2.672706,1775659132.722485,599616650702324038,-989,115,203
2.677706,1775659132.722485,599616650702324038,-991,116,205
2.682706,1775659132.722485,599616650702324038,-990,115,202
2.687706,1775659132.722485,599616650702324038,-991,115,207
2.692706,1775659132.722485,599616650702324038,-992,115,209
2.697706,1775659132.722485,599616650702324038,-991,115,205
2.702706,1775659132.722485,599616650702324038,-990,112,200
2.707706,1775659132.722485,599616650702324038,-991,110,204
2.712706,1775659132.722485,599616650702324038,-993,111,205
2.717706,1775659132.722485,599616650702324038,-993,112,204
2.722706,1775659132.722485,599616650702324038,-993,109,206
2.727706,1775659132.722485,599616650702324038,-991,114,208
2.732706,1775659132.722485,599616650702324038,-990,112,212
2.737706,1775659132.722485,599616650702324038,-987,113,218
2.742706,1775659132.722485,599616650702324038,-985,116,217
2.747706,1775659132.722485,599616650702324038,-985,116,210
2.752706,1775659132.722485,599616650702324038,-986,115,207
2.757706,1775659132.722485,599616650702324038,-988,114,197
2.762706,1775659132.722485,599616650702324038,-987,114,198
2.767706,1775659132.722485,599616650702324038,-984,114,199
2.772706,1775659132.722485,599616650702324038,-986,115,201
2.777706,1775659132.722485,599616650702324038,-987,115,205
2.782706,1775659132.722485,599616650702324038,-986,112,215
2.787706,1775659132.722485,599616650702324038,-984,114,212
2.792706,1775659132.722485,599616650702324038,-988,113,216
2.797706,1775659132.722485,599616650702324038,-986,112,216
2.802706,1775659132.722485,599616650702324038,-991,114,210
2.807706,1775659132.722485,599616650702324038,-991,112,206
2.812706,1775659132.722485,599616650702324038,-993,113,202
2.817706,1775659132.722485,599616650702324038,-992,114,199
2.818948,1775659132.947915,599616650878565462,-995,110,189
2.823948,1775659132.947915,599616650878565462,-987,114,197
2.828948,1775659132.947915,599616650878565462,-985,115,195
2.833948,1775659132.947915,599616650878565462,-985,116,197
2.838948,1775659132.947915,599616650878565462,-981,116,199
2.843948,1775659132.947915,599616650878565462,-984,116,209
2.848948,1775659132.947915,599616650878565462,-984,114,214
2.853948,1775659132.947915,599616650878565462,-990,114,213
2.858948,1775659132.947915,599616650878565462,-992,115,211
2.863948,1775659132.947915,599616650878565462,-993,115,211
2.868948,1775659132.947915,599616650878565462,-994,115,208
2.873948,1775659132.947915,599616650878565462,-993,114,211
2.878948,1775659132.947915,599616650878565462,-996,113,207
2.883948,1775659132.947915,599616650878565462,-990,112,208
2.888948,1775659132.947915,599616650878565462,-995,111,207
2.893948,1775659132.947915,599616650878565462,-990,115,205
2.898948,1775659132.947915,599616650878565462,-994,114,207
2.903948,1775659132.947915,599616650878565462,-992,115,206
2.908948,1775659132.947915,599616650878565462,-993,114,204
2.913948,1775659132.947915,599616650878565462,-991,114,208
2.918948,1775659132.947915,599616650878565462,-990,115,207
2.923948,1775659132.947915,599616650878565462,-989,114,205
2.928948,1775659132.947915,599616650878565462,-987,115,205
2.933948,1775659132.947915,599616650878565462,-992,113,204
2.938948,1775659132.947915,599616650878565462,-990,115,204
2.943948,1775659132.947915,599616650878565462,-988,115,198
2.948948,1775659132.947915,599616650878565462,-985,116,200
2.953948,1775659132.947915,599616650878565462,-989,118,195
2.958948,1775659132.947915,599616650878565462,-987,114,200
2.963948,1775659132.947915,599616650878565462,-986,115,196
2.968948,1775659132.947915,599616650878565462,-987,113,198
2.973948,1775659132.947915,599616650878565462,-988,116,195
2.978948,1775659132.947915,599616650878565462,-988,114,200
2.983948,1775659132.947915,599616650878565462,-988,113,196
2.988948,1775659132.947915,599616650878565462,-994,114,199
2.993948,1775659132.947915,599616650878565462,-992,114,201
2.995189,1775659133.082509,599616651054806912,-990,114,200
3.000189,1775659133.082509,599616651054806912,-992,114,204
3.005189,1775659133.082509,599616651054806912,-991,115,200
3.010189,1775659133.082509,599616651054806912,-990,115,201
3.015189,1775659133.082509,599616651054806912,-989,116,205
3.020189,1775659133.082509,599616651054806912,-988,114,207
3.025189,1775659133.082509,599616651054806912,-991,115,202
3.030189,1775659133.082509,599616651054806912,-988,115,202
3.035189,1775659133.082509,599616651054806912,-988,117,199
3.040189,1775659133.082509,599616651054806912,-990,115,197
3.045189,1775659133.082509,599616651054806912,-990,117,199
3.050189,1775659133.082509,599616651054806912,-991,112,200
3.055189,1775659133.082509,599616651054806912,-987,114,205
3.060189,1775659133.082509,599616651054806912,-991,113,209
3.065189,1775659133.082509,599616651054806912,-988,114,207
3.070189,1775659133.082509,599616651054806912,-991,110,209
3.075189,1775659133.082509,599616651054806912,-992,110,205
3.080189,1775659133.082509,599616651054806912,-997,114,199
3.085189,1775659133.082509,599616651054806912,-996,114,198
3.090189,1775659133.082509,599616651054806912,-996,110,197
3.095189,1775659133.082509,599616651054806912,-994,113,194
3.100189,1775659133.082509,599616651054806912,-990,112,194
3.105189,1775659133.082509,599616651054806912,-988,112,195
3.110189,1775659133.082509,599616651054806912,-986,112,199
3.115189,1775659133.082509,599616651054806912,-988,115,201
3.120189,1775659133.082509,599616651054806912,-989,116,199
3.125189,1775659133.082509,599616651054806912,-990,115,195
3.130189,1775659133.082509,599616651054806912,-992,114,193
3.135189,1775659133.082509,599616651054806912,-993,116,192
3.140189,1775659133.082509,599616651054806912,-992,116,197
3.145189,1775659133.082509,599616651054806912,-992,116,196
3.150189,1775659133.082509,599616651054806912,-992,116,197
3.155189,1775659133.082509,599616651054806912,-992,114,204
3.160189,1775659133.082509,599616651054806912,-993,114,205
3.165189,1775659133.082509,599616651054806912,-991,114,201
3.170189,1775659133.082509,599616651054806912,-993,115,200
3.171461,1775659133.306498,599616651231078890,-992,113,198
3.176461,1775659133.306498,599616651231078890,-993,115,199
3.181461,1775659133.306498,599616651231078890,-994,117,200
3.186461,1775659133.306498,599616651231078890,-995,115,195
3.191461,1775659133.306498,599616651231078890,-996,115,199
3.196461,1775659133.306498,599616651231078890,-990,114,195
3.201461,1775659133.306498,599616651231078890,-993,112,205
3.206461,1775659133.306498,599616651231078890,-991,112,203
3.211461,1775659133.306498,599616651231078890,-987,113,202
3.216461,1775659133.306498,599616651231078890,-990,114,200
3.221461,1775659133.306498,599616651231078890,-985,117,199
3.226461,1775659133.306498,599616651231078890,-987,115,203
3.231461,1775659133.306498,599616651231078890,-989,114,200
3.236461,1775659133.306498,599616651231078890,-989,114,199
3.241461,1775659133.306498,599616651231078890,-991,116,196
3.246461,1775659133.306498,599616651231078890,-987,114,195
3.251461,1775659133.306498,599616651231078890,-989,114,195
3.256461,1775659133.306498,599616651231078890,-992,114,193
3.261461,1775659133.306498,599616651231078890,-994,115,192
3.266461,1775659133.306498,599616651231078890,-991,115,196
3.271461,1775659133.306498,599616651231078890,-989,114,197
3.276461,1775659133.306498,599616651231078890,-992,114,189
3.281461,1775659133.306498,599616651231078890,-992,116,193
3.286461,1775659133.306498,599616651231078890,-992,114,194
3.291461,1775659133.306498,599616651231078890,-991,115,197
3.296461,1775659133.306498,599616651231078890,-989,114,198
3.301461,1775659133.306498,599616651231078890,-989,113,196
3.306461,1775659133.306498,599616651231078890,-990,114,195
3.311461,1775659133.306498,599616651231078890,-992,114,195
3.316461,1775659133.306498,599616651231078890,-990,114,193
3.321461,1775659133.306498,599616651231078890,-988,114,196
3.326461,1775659133.306498,599616651231078890,-991,115,192
3.331461,1775659133.306498,599616651231078890,-991,115,199
3.336461,1775659133.306498,599616651231078890,-993,113,193
3.341461,1775659133.306498,599616651231078890,-988,113,193
3.346461,1775659133.306498,599616651231078890,-990,115,196
3.347703,1775659133.443486,599616651407320330,-993,115,191
3.352702,1775659133.443486,599616651407320330,-996,114,186
3.357702,1775659133.443486,599616651407320330,-992,115,195
3.362702,1775659133.443486,599616651407320330,-992,114,194
3.367702,1775659133.443486,599616651407320330,-989,114,195
3.372702,1775659133.443486,599616651407320330,-992,114,195
3.377702,1775659133.443486,599616651407320330,-988,114,197
3.382702,1775659133.443486,599616651407320330,-992,111,197
3.387702,1775659133.443486,599616651407320330,-991,113,198
3.392702,1775659133.443486,599616651407320330,-990,113,196
3.397702,1775659133.443486,599616651407320330,-994,113,191
3.402702,1775659133.443486,599616651407320330,-995,113,191
3.407702,1775659133.443486,599616651407320330,-992,113,198
3.412702,1775659133.443486,599616651407320330,-991,114,190
3.417702,1775659133.443486,599616651407320330,-989,114,194
3.422702,1775659133.443486,599616651407320330,-989,115,192
3.427702,1775659133.443486,599616651407320330,-991,113,195
3.432702,1775659133.443486,599616651407320330,-988,112,193
3.437702,1775659133.443486,599616651407320330,-993,112,194
3.442702,1775659133.443486,599616651407320330,-989,114,192
3.447702,1775659133.443486,599616651407320330,-993,115,195
3.452702,1775659133.443486,599616651407320330,-990,115,192
3.457702,1775659133.443486,599616651407320330,-992,115,197
3.462703,1775659133.443486,599616651407320330,-990,117,189
3.467703,1775659133.443486,599616651407320330,-993,115,190
3.472703,1775659133.443486,599616651407320330,-991,116,194
3.477702,1775659133.443486,599616651407320330,-995,113,193
3.482702,1775659133.443486,599616651407320330,-991,115,196
3.487702,1775659133.443486,599616651407320330,-989,115,192
3.492702,1775659133.443486,599616651407320330,-995,116,199
3.497702,1775659133.443486,599616651407320330,-996,114,197
3.502702,1775659133.443486,599616651407320330,-993,116,195
3.507702,1775659133.443486,599616651407320330,-993,115,196
3.512702,1775659133.443486,599616651407320330,-991,114,197
3.517702,1775659133.443486,599616651407320330,-990,115,194
3.522702,1775659133.443486,599616651407320330,-991,112,191
3.524036,1775659133.623492,599616651583653364,-992,111,193
3.529036,1775659133.623492,599616651583653364,-992,115,189
3.534036,1775659133.623492,599616651583653364,-992,115,191
3.539036,1775659133.623492,599616651583653364,-990,114,188
3.544036,1775659133.623492,599616651583653364,-993,115,193
3.549036,1775659133.623492,599616651583653364,-988,117,191
3.554036,1775659133.623492,599616651583653364,-991,114,194
3.559036,1775659133.623492,599616651583653364,-989,114,193
3.564036,1775659133.623492,599616651583653364,-990,112,200
3.569036,1775659133.623492,599616651583653364,-993,115,197
3.574036,1775659133.623492,599616651583653364,-993,112,196
3.579036,1775659133.623492,599616651583653364,-991,116,198
3.584036,1775659133.623492,599616651583653364,-993,115,197
3.589036,1775659133.623492,599616651583653364,-996,115,198
3.594036,1775659133.623492,599616651583653364,-993,114,193
3.599036,1775659133.623492,599616651583653364,-989,112,196
3.604035,1775659133.623492,599616651583653364,-991,114,192
3.609035,1775659133.623492,599616651583653364,-992,115,202
3.614035,1775659133.623492,599616651583653364,-992,115,196
3.619035,1775659133.623492,599616651583653364,-993,114,202
3.624035,1775659133.623492,599616651583653364,-990,113,198
3.629035,1775659133.623492,599616651583653364,-991,115,205
3.634035,1775659133.623492,599616651583653364,-991,114,201
3.639036,1775659133.623492,599616651583653364,-991,113,198
3.644036,1775659133.623492,599616651583653364,-992,115,200
3.649036,1775659133.623492,599616651583653364,-991,112,202
3.654036,1775659133.623492,599616651583653364,-995,113,205
3.659036,1775659133.623492,599616651583653364,-994,113,205
3.664036,1775659133.623492,599616651583653364,-992,114,202
3.669036,1775659133.623492,599616651583653364,-992,116,198
3.674036,1775659133.623492,599616651583653364,-990,116,198
3.679036,1775659133.623492,599616651583653364,-990,116,197
3.684036,1775659133.623492,599616651583653364,-992,114,193
3.689036,1775659133.623492,599616651583653364,-990,114,194
3.694036,1775659133.623492,599616651583653364,-994,115,186
3.699036,1775659133.623492,599616651583653364,-995,113,195
3.700369,1775659133.757484,599616651759986368,-998,112,210
3.705369,1775659133.757484,599616651759986368,-994,112,197
3.710369,1775659133.757484,599616651759986368,-997,114,199
3.715369,1775659133.757484,599616651759986368,-992,116,203
3.720369,1775659133.757484,599616651759986368,-989,114,208
3.725369,1775659133.757484,599616651759986368,-987,116,209
3.730369,1775659133.757484,599616651759986368,-985,118,204
3.735369,1775659133.757484,599616651759986368,-989,114,196
3.740369,1775659133.757484,599616651759986368,-987,114,200
3.745369,1775659133.757484,599616651759986368,-987,110,202
3.750369,1775659133.757484,599616651759986368,-989,110,198
3.755369,1775659133.757484,599616651759986368,-991,113,195
3.760369,1775659133.757484,599616651759986368,-990,114,196
3.765369,1775659133.757484,599616651759986368,-990,114,204
3.770369,1775659133.757484,599616651759986368,-988,113,209
3.775369,1775659133.757484,599616651759986368,-987,114,208
3.780369,1775659133.757484,599616651759986368,-988,116,214
3.785369,1775659133.757484,599616651759986368,-990,115,208
3.790369,1775659133.757484,599616651759986368,-993,116,207
3.795369,1775659133.757484,599616651759986368,-997,113,204
3.800369,1775659133.757484,599616651759986368,-996,114,197
3.805369,1775659133.757484,599616651759986368,-989,112,186
3.810369,1775659133.757484,599616651759986368,-990,114,194
3.815369,1775659133.757484,599616651759986368,-985,113,197
3.820369,1775659133.757484,599616651759986368,-982,114,196
3.825369,1775659133.757484,599616651759986368,-982,115,206
3.830369,1775659133.757484,599616651759986368,-985,118,205
3.835369,1775659133.757484,599616651759986368,-990,117,211
3.840369,1775659133.757484,599616651759986368,-992,116,207
3.845369,1775659133.757484,599616651759986368,-998,115,211
3.850369,1775659133.757484,599616651759986368,-999,116,211
3.855369,1775659133.757484,599616651759986368,-997,115,213
3.860369,1775659133.757484,599616651759986368,-1000,116,209
3.865369,1775659133.757484,599616651759986368,-1001,116,205
3.870369,1775659133.757484,599616651759986368,-997,115,211
3.875369,1775659133.757484,599616651759986368,-995,115,209
3.876671,1775659133.938474,599616651936288844,-995,110,213
3.881671,1775659133.938474,599616651936288844,-993,111,211
3.886671,1775659133.938474,599616651936288844,-993,114,208
3.891671,1775659133.938474,599616651936288844,-993,114,207
3.896671,1775659133.938474,599616651936288844,-991,114,212
3.901671,1775659133.938474,599616651936288844,-990,114,207
3.906671,1775659133.938474,599616651936288844,-989,115,210
3.911671,1775659133.938474,599616651936288844,-990,116,206
3.916671,1775659133.938474,599616651936288844,-985,114,209
3.921671,1775659133.938474,599616651936288844,-988,116,209
3.926671,1775659133.938474,599616651936288844,-986,115,206
3.931671,1775659133.938474,599616651936288844,-984,117,209
3.936671,1775659133.938474,599616651936288844,-983,115,214
3.941671,1775659133.938474,599616651936288844,-984,114,212
3.946671,1775659133.938474,599616651936288844,-984,116,215
3.951671,1775659133.938474,599616651936288844,-984,114,212
3.956671,1775659133.938474,599616651936288844,-984,113,208
3.961671,1775659133.938474,599616651936288844,-984,116,206
3.966671,1775659133.938474,599616651936288844,-988,112,214
3.971671,1775659133.938474,599616651936288844,-989,112,214
3.976671,1775659133.938474,599616651936288844,-986,114,218
3.981671,1775659133.938474,599616651936288844,-986,112,214
3.986671,1775659133.938474,599616651936288844,-990,114,212
3.991671,1775659133.938474,599616651936288844,-989,115,218
3.996671,1775659133.938474,599616651936288844,-991,115,220
4.001671,1775659133.938474,599616651936288844,-989,114,222
4.006671,1775659133.938474,599616651936288844,-988,113,218
4.011671,1775659133.938474,599616651936288844,-989,113,218
4.016671,1775659133.938474,599616651936288844,-986,114,215
4.021671,1775659133.938474,599616651936288844,-984,114,215
4.026671,1775659133.938474,599616651936288844,-984,114,215
4.031671,1775659133.938474,599616651936288844,-980,114,219
4.036671,1775659133.938474,599616651936288844,-982,115,220
4.041671,1775659133.938474,599616651936288844,-985,114,225
4.046671,1775659133.938474,599616651936288844,-985,114,225
4.051671,1775659133.938474,599616651936288844,-990,115,219
4.052974,1775659134.117484,599616652112591330,-988,118,217
4.057974,1775659134.117484,599616652112591330,-993,110,222
4.062974,1775659134.117484,599616652112591330,-993,112,224
4.067974,1775659134.117484,599616652112591330,-990,113,212
4.072974,1775659134.117484,599616652112591330,-992,113,210
4.077974,1775659134.117484,599616652112591330,-988,113,211
4.082974,1775659134.117484,599616652112591330,-984,109,214
4.087974,1775659134.117484,599616652112591330,-985,109,217
4.092974,1775659134.117484,599616652112591330,-981,113,217
4.097974,1775659134.117484,599616652112591330,-983,113,219
4.102974,1775659134.117484,599616652112591330,-984,113,222
4.107974,1775659134.117484,599616652112591330,-986,114,217
4.112974,1775659134.117484,599616652112591330,-990,114,223
4.117974,1775659134.117484,599616652112591330,-990,115,218
4.122974,1775659134.117484,599616652112591330,-991,114,226
4.127974,1775659134.117484,599616652112591330,-988,115,223
4.132974,1775659134.117484,599616652112591330,-989,115,223
4.137974,1775659134.117484,599616652112591330,-985,114,222
4.142974,1775659134.117484,599616652112591330,-987,113,226
4.147974,1775659134.117484,599616652112591330,-987,113,232
4.152974,1775659134.117484,599616652112591330,-988,111,229
4.157974,1775659134.117484,599616652112591330,-986,113,229
4.162974,1775659134.117484,599616652112591330,-985,112,218
4.167974,1775659134.117484,599616652112591330,-988,113,229
4.172974,1775659134.117484,599616652112591330,-986,113,226
4.177974,1775659134.117484,599616652112591330,-985,114,225
4.182974,1775659134.117484,599616652112591330,-985,115,228
4.187974,1775659134.117484,599616652112591330,-983,115,225
4.192974,1775659134.117484,599616652112591330,-986,116,227
4.197974,1775659134.117484,599616652112591330,-984,111,226
4.202974,1775659134.117484,599616652112591330,-987,115,228
4.207974,1775659134.117484,599616652112591330,-989,114,228
4.212974,1775659134.117484,599616652112591330,-988,112,229
4.217974,1775659134.117484,599616652112591330,-988,112,231
4.222974,1775659134.117484,599616652112591330,-988,114,226
4.227974,1775659134.117484,599616652112591330,-983,114,229
4.229307,1775659134.297476,599616652288924344,-986,117,224
4.234307,1775659134.297476,599616652288924344,-986,114,227
4.239307,1775659134.297476,599616652288924344,-985,112,230
4.244307,1775659134.297476,599616652288924344,-983,113,228
4.249307,1775659134.297476,599616652288924344,-984,115,229
4.254307,1775659134.297476,599616652288924344,-986,114,228
4.259307,1775659134.297476,599616652288924344,-986,113,229
4.264307,1775659134.297476,599616652288924344,-983,113,230
4.269307,1775659134.297476,599616652288924344,-985,115,232
4.274307,1775659134.297476,599616652288924344,-984,115,231
4.279307,1775659134.297476,599616652288924344,-984,114,231
4.284307,1775659134.297476,599616652288924344,-984,113,234
4.289307,1775659134.297476,599616652288924344,-983,116,232
4.294307,1775659134.297476,599616652288924344,-984,116,230
4.299307,1775659134.297476,599616652288924344,-983,115,237
4.304307,1775659134.297476,599616652288924344,-983,115,231
4.309307,1775659134.297476,599616652288924344,-983,114,234
4.314306,1775659134.297476,599616652288924344,-982,115,233
4.319306,1775659134.297476,599616652288924344,-984,115,234
4.324306,1775659134.297476,599616652288924344,-980,114,233
4.329306,1775659134.297476,599616652288924344,-985,115,234
4.334306,1775659134.297476,599616652288924344,-983,115,233
4.339306,1775659134.297476,599616652288924344,-982,116,230
4.344307,1775659134.297476,599616652288924344,-983,114,228
4.349307,1775659134.297476,599616652288924344,-982,115,232
4.354307,1775659134.297476,599616652288924344,-983,114,229
4.359307,1775659134.297476,599616652288924344,-982,114,233
4.364307,1775659134.297476,599616652288924344,-985,114,234
4.369307,1775659134.297476,599616652288924344,-982,116,231
4.374307,1775659134.297476,599616652288924344,-985,114,234
4.379307,1775659134.297476,599616652288924344,-983,115,236
4.384307,1775659134.297476,599616652288924344,-982,114,235
4.389307,1775659134.297476,599616652288924344,-986,115,236
4.394307,1775659134.297476,599616652288924344,-983,114,237
4.399307,1775659134.297476,599616652288924344,-983,114,239
4.404307,1775659134.297476,599616652288924344,-983,114,236
4.405517,1775659134.478468,599616652465135272,-978,114,237
4.410517,1775659134.478468,599616652465135272,-981,114,239
4.415517,1775659134.478468,599616652465135272,-984,113,237
4.420517,1775659134.478468,599616652465135272,-982,110,244
4.425517,1775659134.478468,599616652465135272,-981,112,240
4.430517,1775659134.478468,599616652465135272,-983,115,241
4.435517,1775659134.478468,599616652465135272,-981,113,242
4.440517,1775659134.478468,599616652465135272,-982,116,238
4.445517,1775659134.478468,599616652465135272,-985,114,237
4.450517,1775659134.478468,599616652465135272,-982,115,240
4.455517,1775659134.478468,599616652465135272,-981,115,241
4.460517,1775659134.478468,599616652465135272,-980,115,239
4.465517,1775659134.478468,599616652465135272,-980,112,237
4.470517,1775659134.478468,599616652465135272,-980,114,235
4.475517,1775659134.478468,599616652465135272,-980,114,239
4.480517,1775659134.478468,599616652465135272,-977,114,237
4.485517,1775659134.478468,599616652465135272,-977,114,240
4.490517,1775659134.478468,599616652465135272,-978,115,243
4.495517,1775659134.478468,599616652465135272,-979,114,238
4.500517,1775659134.478468,599616652465135272,-980,114,237
4.505517,1775659134.478468,599616652465135272,-982,115,234
4.510517,1775659134.478468,599616652465135272,-981,115,233
4.515517,1775659134.478468,599616652465135272,-982,116,231
4.520517,1775659134.478468,599616652465135272,-979,116,233
4.525517,1775659134.478468,599616652465135272,-977,115,234
4.530517,1775659134.478468,599616652465135272,-977,115,232
4.535517,1775659134.478468,599616652465135272,-978,114,228
4.540517,1775659134.478468,599616652465135272,-980,116,230
4.545517,1775659134.478468,599616652465135272,-979,115,231
4.550517,1775659134.478468,599616652465135272,-980,115,231
4.555517,1775659134.478468,599616652465135272,-981,113,231
4.560517,1775659134.478468,599616652465135272,-978,114,237
4.565517,1775659134.478468,599616652465135272,-980,116,232
4.570517,1775659134.478468,599616652465135272,-981,116,237
4.575517,1775659134.478468,599616652465135272,-979,114,233
4.580517,1775659134.478468,599616652465135272,-979,115,237
